#NVEL: 40
#TIMES[d]: 100 150 200 300 400
#vel_mid[km/s], Edep [erg/s/cm3] ... 
2.500000e+02 3.908679e-06 4.044569e-07 7.291705e-08 5.538435e-09 7.495489e-10
7.500000e+02 3.278480e-06 3.384180e-07 6.133672e-08 4.700205e-09 6.378478e-10
1.250000e+03 2.649461e-06 2.752251e-07 5.006721e-08 3.873239e-09 5.308657e-10
1.750000e+03 2.104842e-06 2.195822e-07 4.031572e-08 3.141951e-09 4.351686e-10
2.250000e+03 1.669903e-06 1.754764e-07 3.240291e-08 2.571018e-09 3.595267e-10
2.750000e+03 1.311379e-06 1.378712e-07 2.582876e-08 2.084965e-09 2.948953e-10
3.250000e+03 1.025904e-06 1.091537e-07 2.060564e-08 1.692573e-09 2.422675e-10
3.750000e+03 7.989907e-07 8.618004e-08 1.640457e-08 1.375730e-09 1.987625e-10
4.250000e+03 6.222538e-07 6.752113e-08 1.308293e-08 1.116951e-09 1.633227e-10
4.750000e+03 4.829598e-07 5.341880e-08 1.043502e-08 9.065156e-10 1.343645e-10
5.250000e+03 3.757381e-07 4.214600e-08 8.342186e-09 7.388755e-10 1.108471e-10
5.750000e+03 2.908928e-07 3.315064e-08 6.666045e-09 6.022266e-10 9.125342e-11
6.250000e+03 2.254072e-07 2.619025e-08 5.335017e-09 4.934057e-10 7.536747e-11
6.750000e+03 1.743085e-07 2.053092e-08 4.269861e-09 4.009945e-10 6.208763e-11
7.250000e+03 1.328077e-07 1.585117e-08 3.331965e-09 3.163292e-10 4.927409e-11
7.750000e+03 9.897737e-08 1.186463e-08 2.494995e-09 2.372948e-10 3.702753e-11
8.250000e+03 7.248741e-08 8.644945e-09 1.803108e-09 1.704812e-10 2.656020e-11
8.750000e+03 5.219913e-08 6.110369e-09 1.260673e-09 1.173101e-10 1.802346e-11
9.250000e+03 3.690675e-08 4.211875e-09 8.505731e-10 7.678097e-11 1.162319e-11
9.750000e+03 2.595246e-08 2.860438e-09 5.579705e-10 4.825067e-11 7.136775e-12
1.025000e+04 1.819890e-08 1.920401e-09 3.581073e-10 2.913550e-11 4.109489e-12
1.075000e+04 1.280956e-08 1.290486e-09 2.287041e-10 1.692101e-11 2.251651e-12
1.125000e+04 9.201138e-09 8.837290e-10 1.483990e-10 9.819495e-12 1.190948e-12
1.175000e+04 6.719325e-09 6.248014e-10 9.985257e-11 5.910385e-12 6.338480e-13
1.225000e+04 5.047599e-09 4.593949e-10 7.172658e-11 3.970284e-12 3.904945e-13
1.275000e+04 3.855085e-09 3.512164e-10 5.482935e-11 3.007477e-12 2.940688e-13
1.325000e+04 2.979411e-09 2.706642e-10 4.216148e-11 2.316261e-12 2.261798e-13
1.375000e+04 2.309921e-09 2.103554e-10 3.278902e-11 1.802890e-12 1.757749e-13
1.425000e+04 1.786170e-09 1.630904e-10 2.551679e-11 1.395077e-12 1.361280e-13
1.475000e+04 1.394953e-09 1.273564e-10 1.984690e-11 1.092116e-12 1.063227e-13
1.525000e+04 1.103401e-09 1.002798e-10 1.564924e-11 8.605446e-13 8.388177e-14
1.575000e+04 8.603541e-10 7.868910e-11 1.227185e-11 6.741573e-13 6.574142e-14
1.625000e+04 6.765091e-10 6.174036e-11 9.647842e-12 5.295034e-13 5.168487e-14
1.675000e+04 5.338141e-10 4.872837e-11 7.618315e-12 4.169245e-13 4.081240e-14
1.725000e+04 4.220564e-10 3.857399e-11 6.022223e-12 3.316851e-13 3.226183e-14
1.775000e+04 3.344036e-10 3.063071e-11 4.777288e-12 2.619289e-13 2.557513e-14
1.825000e+04 2.652245e-10 2.436562e-11 3.787388e-12 2.079846e-13 2.025744e-14
1.875000e+04 2.112577e-10 1.929876e-11 3.018073e-12 1.655879e-13 1.612090e-14
1.925000e+04 1.677986e-10 1.534971e-11 2.397203e-12 1.316958e-13 1.279730e-14
1.975000e+04 1.341093e-10 1.225821e-11 1.913649e-12 1.051966e-13 1.027973e-14
