#NTIMES: 99
#NSTAGES: 8
#TIMES[d]:    2.0   3.0   4.0   5.0   6.0   7.0   8.0   9.0  10.0  11.0  12.0  13.0  14.0  15.0  16.0  17.0  18.0  19.0  20.0  21.0  22.0  23.0  24.0  25.0  26.0  27.0  28.0  29.0  30.0  31.0  32.0  33.0  34.0  35.0  36.0  37.0  38.0  39.0  40.0  41.0  42.0  43.0  44.0  45.0  46.0  47.0  48.0  49.0  50.0  51.0  52.0  53.0  54.0  55.0  56.0  57.0  58.0  59.0  60.0  61.0  62.0  63.0  64.0  65.0  66.0  67.0  68.0  69.0  70.0  71.0  72.0  73.0  74.0  75.0  76.0  77.0  78.0  79.0  80.0  81.0  82.0  83.0  84.0  85.0  86.0  87.0  88.0  89.0  90.0  91.0  92.0  93.0  94.0  95.0  96.0  97.0  98.0  99.0 100.0
#
#TIME: 2.0
#NVEL: 100
#vel_mid[km/s]    fe0          fe1          fe2          fe3          fe4          fe5          fe6          fe7
   2.0000E+02   3.4384E-49   5.1789E-40   2.1439E-31   2.0249E-23   3.7823E-16   8.1850E-10   1.3621E-04   9.9986E-01
   4.0000E+02   4.9512E-49   7.6409E-40   3.1900E-31   2.9876E-23   5.3734E-16   1.0820E-09   1.6038E-04   9.9984E-01
   6.0000E+02   7.2143E-49   1.1406E-39   4.8004E-31   4.4547E-23   7.7048E-16   1.4404E-09   1.8960E-04   9.9981E-01
   8.0000E+02   1.0658E-48   1.7255E-39   7.3169E-31   6.7212E-23   1.1161E-15   1.9323E-09   2.2510E-04   9.9977E-01
   1.0000E+03   1.5933E-48   2.6409E-39   1.1277E-30   1.0246E-22   1.6314E-15   2.6097E-09   2.6826E-04   9.9973E-01
   1.2000E+03   2.4094E-48   4.0873E-39   1.7568E-30   1.5776E-22   2.4054E-15   3.5479E-09   3.2087E-04   9.9968E-01
   1.4000E+03   3.6782E-48   6.3853E-39   2.7617E-30   2.4496E-22   3.5728E-15   4.8499E-09   3.8500E-04   9.9961E-01
   1.6000E+03   5.7079E-48   1.0135E-38   4.4075E-30   3.8569E-22   5.3710E-15   6.6897E-09   4.6427E-04   9.9954E-01
   1.8000E+03   8.9605E-48   1.6269E-38   7.1110E-30   6.1346E-22   8.1457E-15   9.2887E-09   5.6193E-04   9.9944E-01
   2.0000E+03   1.4266E-47   2.6476E-38   1.1624E-29   9.8766E-22   1.2484E-14   1.2999E-08   6.8312E-04   9.9932E-01
   2.2000E+03   2.2910E-47   4.3458E-38   1.9161E-29   1.6027E-21   1.9266E-14   1.8286E-08   8.3286E-04   9.9917E-01
   2.4000E+03   3.7506E-47   7.2674E-38   3.2150E-29   2.6436E-21   3.0153E-14   2.5994E-08   1.0214E-03   9.9898E-01
   2.6000E+03   6.2109E-47   1.2290E-37   5.4533E-29   4.4048E-21   4.7609E-14   3.7195E-08   1.2571E-03   9.9874E-01
   2.8000E+03   1.0417E-46   2.1045E-37   9.3616E-29   7.4221E-21   7.5901E-14   5.3610E-08   1.5535E-03   9.9845E-01
   3.0000E+03   1.7740E-46   3.6579E-37   1.6303E-28   1.2673E-20   1.2240E-13   7.7929E-08   1.9288E-03   9.9807E-01
   3.2000E+03   3.0630E-46   6.4437E-37   2.8760E-28   2.1902E-20   1.9945E-13   1.1416E-07   2.4051E-03   9.9759E-01
   3.4000E+03   5.3675E-46   1.1517E-36   5.1447E-28   3.8344E-20   3.2863E-13   1.6863E-07   3.0128E-03   9.9699E-01
   3.6000E+03   9.5465E-46   2.0885E-36   9.3329E-28   6.8010E-20   5.4760E-13   2.5117E-07   3.7913E-03   9.9621E-01
   3.8000E+03   1.7230E-45   3.8419E-36   1.7166E-27   1.2219E-19   9.2259E-13   3.7717E-07   4.7923E-03   9.9521E-01
   4.0000E+03   3.1569E-45   7.1726E-36   3.2025E-27   2.2244E-19   1.5721E-12   5.7117E-07   6.0853E-03   9.9391E-01
   4.2000E+03   5.8720E-45   1.3590E-35   6.0608E-27   4.1037E-19   2.7095E-12   8.7226E-07   7.7623E-03   9.9224E-01
   4.4000E+03   1.1094E-44   2.6146E-35   1.1640E-26   7.6755E-19   4.7250E-12   1.3436E-06   9.9470E-03   9.9005E-01
   4.6000E+03   2.1270E-44   5.1031E-35   2.2670E-26   1.4543E-18   8.3312E-12   2.0864E-06   1.2800E-02   9.8720E-01
   4.8000E+03   4.1399E-44   1.0109E-34   4.4790E-26   2.7927E-18   1.4858E-11   3.2668E-06   1.6542E-02   9.8345E-01
   5.0000E+03   8.1805E-44   2.0325E-34   8.9777E-26   5.4348E-18   2.6799E-11   5.1569E-06   2.1465E-02   9.7853E-01
   5.2500E+03   1.9545E-43   4.9615E-34   2.1820E-25   1.2714E-17   5.6856E-11   9.2214E-06   2.9871E-02   9.7012E-01
   5.5000E+03   4.7693E-43   1.2368E-33   5.4128E-25   3.0315E-17   1.2255E-10   1.6671E-05   4.1760E-02   9.5822E-01
   5.7500E+03   1.1859E-42   3.1415E-33   1.3678E-24   7.3540E-17   2.6793E-10   3.0424E-05   5.8553E-02   9.4142E-01
   6.0000E+03   2.9905E-42   8.0954E-33   3.5068E-24   1.8080E-16   5.9207E-10   5.5868E-05   8.2117E-02   9.1783E-01
   6.2500E+03   7.6174E-42   2.1085E-32   9.0898E-24   4.4910E-16   1.3183E-09   1.0292E-04   1.1483E-01   8.8507E-01
   6.5000E+03   1.9455E-41   5.5130E-32   2.3671E-23   1.1203E-15   2.9414E-09   1.8922E-04   1.5935E-01   8.4046E-01
   6.7500E+03   5.2027E-41   1.5075E-31   6.4311E-23   2.9019E-15   6.7534E-09   3.5329E-04   2.2067E-01   7.7898E-01
   7.0000E+03   1.8096E-40   5.2938E-31   2.2046E-22   9.2404E-15   1.8307E-08   7.3594E-04   3.1680E-01   6.8247E-01
   7.2500E+03   8.1413E-40   2.3738E-30   9.4720E-22   3.5845E-14   5.7788E-08   1.6750E-03   4.5724E-01   5.4108E-01
   7.5000E+03   4.6046E-39   1.3185E-29   4.9377E-21   1.6349E-13   2.0412E-07   3.9812E-03   6.3011E-01   3.6590E-01
   8.0000E+03   3.1149E-37   8.0237E-28   2.4233E-19   5.4160E-12   3.3619E-06   2.3090E-02   8.9288E-01   8.4029E-02
   8.5000E+03   6.4678E-35   1.3730E-25   2.9779E-17   3.7525E-10   8.7678E-05   1.4542E-01   8.4743E-01   7.0635E-03
   9.0000E+03   2.7750E-32   4.5917E-23   6.5304E-15   3.8805E-08   2.5232E-03   6.6262E-01   3.3473E-01   1.2242E-04
   9.5000E+03   1.6468E-29   1.9522E-20   1.5921E-12   3.4315E-06   4.0573E-02   9.4019E-01   1.9237E-02   1.1803E-07
   1.0000E+04   2.4377E-26   1.9208E-17   7.7007E-10   4.2602E-04   5.1851E-01   4.8093E-01   1.4137E-04   3.8984E-12
   1.0500E+04   3.3295E-23   1.5484E-14   2.3483E-07   1.9005E-02   9.7052E-01   1.0478E-02   8.8502E-09   1.4153E-19
   1.1000E+04   2.0077E-19   4.5071E-11   1.5833E-04   6.9287E-01   3.0697E-01   4.4785E-06   6.5098E-16   1.6038E-31
   1.1500E+04   1.2100E-15   9.7938E-08   3.0016E-02   9.6984E-01   1.4319E-04   3.3459E-14   2.2105E-30   3.6543E-54
   1.2000E+04   3.1092E-10   1.6766E-03   9.9796E-01   3.6771E-04   3.0653E-16   1.9809E-37   5.2837E-69   1.0000E-99
   1.2500E+04   1.0000E-99   1.0000E-99   1.0000E-99   1.0000E-99   1.0000E-99   1.0000E-99   1.0000E-99   1.0000E-99
   1.3000E+04   1.0000E-99   1.0000E-99   1.0000E-99   1.0000E-99   1.0000E-99   1.0000E-99   1.0000E-99   1.0000E-99
   1.3500E+04   1.0000E-99   1.0000E-99   1.0000E-99   1.0000E-99   1.0000E-99   1.0000E-99   1.0000E-99   1.0000E-99
   1.4000E+04   1.0000E-99   1.0000E-99   1.0000E-99   1.0000E-99   1.0000E-99   1.0000E-99   1.0000E-99   1.0000E-99
   1.4500E+04   1.0000E-99   1.0000E-99   1.0000E-99   1.0000E-99   1.0000E-99   1.0000E-99   1.0000E-99   1.0000E-99
   1.5000E+04   1.0000E-99   1.0000E-99   1.0000E-99   1.0000E-99   1.0000E-99   1.0000E-99   1.0000E-99   1.0000E-99
   1.5500E+04   1.0000E-99   1.0000E-99   1.0000E-99   1.0000E-99   1.0000E-99   1.0000E-99   1.0000E-99   1.0000E-99
   1.6000E+04   1.0000E-99   1.0000E-99   1.0000E-99   1.0000E-99   1.0000E-99   1.0000E-99   1.0000E-99   1.0000E-99
   1.6500E+04   1.0000E-99   1.0000E-99   1.0000E-99   1.0000E-99   1.0000E-99   1.0000E-99   1.0000E-99   1.0000E-99
   1.7000E+04   1.0000E-99   1.0000E-99   1.0000E-99   1.0000E-99   1.0000E-99   1.0000E-99   1.0000E-99   1.0000E-99
   1.7500E+04   1.0000E-99   1.0000E-99   1.0000E-99   1.0000E-99   1.0000E-99   1.0000E-99   1.0000E-99   1.0000E-99
   1.8000E+04   1.0000E-99   1.0000E-99   1.0000E-99   1.0000E-99   1.0000E-99   1.0000E-99   1.0000E-99   1.0000E-99
   1.8500E+04   1.0000E-99   1.0000E-99   1.0000E-99   1.0000E-99   1.0000E-99   1.0000E-99   1.0000E-99   1.0000E-99
   1.9000E+04   1.0000E-99   1.0000E-99   1.0000E-99   1.0000E-99   1.0000E-99   1.0000E-99   1.0000E-99   1.0000E-99
   1.9500E+04   1.0000E-99   1.0000E-99   1.0000E-99   1.0000E-99   1.0000E-99   1.0000E-99   1.0000E-99   1.0000E-99
   2.0000E+04   1.0000E-99   1.0000E-99   1.0000E-99   1.0000E-99   1.0000E-99   1.0000E-99   1.0000E-99   1.0000E-99
   2.0500E+04   1.0000E-99   1.0000E-99   1.0000E-99   1.0000E-99   1.0000E-99   1.0000E-99   1.0000E-99   1.0000E-99
   2.1000E+04   1.0000E-99   1.0000E-99   1.0000E-99   1.0000E-99   1.0000E-99   1.0000E-99   1.0000E-99   1.0000E-99
   2.1500E+04   1.0000E-99   1.0000E-99   1.0000E-99   1.0000E-99   1.0000E-99   1.0000E-99   1.0000E-99   1.0000E-99
   2.2000E+04   1.0000E-99   1.0000E-99   1.0000E-99   1.0000E-99   1.0000E-99   1.0000E-99   1.0000E-99   1.0000E-99
   2.2500E+04   1.0000E-99   1.0000E-99   1.0000E-99   1.0000E-99   1.0000E-99   1.0000E-99   1.0000E-99   1.0000E-99
   2.3000E+04   1.0000E-99   1.0000E-99   1.0000E-99   1.0000E-99   1.0000E-99   1.0000E-99   1.0000E-99   1.0000E-99
   2.3500E+04   1.0000E-99   1.0000E-99   1.0000E-99   1.0000E-99   1.0000E-99   1.0000E-99   1.0000E-99   1.0000E-99
   2.4000E+04   1.0000E-99   1.0000E-99   1.0000E-99   1.0000E-99   1.0000E-99   1.0000E-99   1.0000E-99   1.0000E-99
   2.4500E+04   1.0000E-99   1.0000E-99   1.0000E-99   1.0000E-99   1.0000E-99   1.0000E-99   1.0000E-99   1.0000E-99
   2.5000E+04   1.0000E-99   1.0000E-99   1.0000E-99   1.0000E-99   1.0000E-99   1.0000E-99   1.0000E-99   1.0000E-99
   2.5500E+04   1.0000E-99   1.0000E-99   1.0000E-99   1.0000E-99   1.0000E-99   1.0000E-99   1.0000E-99   1.0000E-99
   2.6000E+04   1.0000E-99   1.0000E-99   1.0000E-99   1.0000E-99   1.0000E-99   1.0000E-99   1.0000E-99   1.0000E-99
   2.6500E+04   1.0000E-99   1.0000E-99   1.0000E-99   1.0000E-99   1.0000E-99   1.0000E-99   1.0000E-99   1.0000E-99
   2.7000E+04   1.0000E-99   1.0000E-99   1.0000E-99   1.0000E-99   1.0000E-99   1.0000E-99   1.0000E-99   1.0000E-99
   2.7500E+04   1.0000E-99   1.0000E-99   1.0000E-99   1.0000E-99   1.0000E-99   1.0000E-99   1.0000E-99   1.0000E-99
   2.8000E+04   1.0000E-99   1.0000E-99   1.0000E-99   1.0000E-99   1.0000E-99   1.0000E-99   1.0000E-99   1.0000E-99
   2.8500E+04   1.0000E-99   1.0000E-99   1.0000E-99   1.0000E-99   1.0000E-99   1.0000E-99   1.0000E-99   1.0000E-99
   2.9000E+04   1.0000E-99   1.0000E-99   1.0000E-99   1.0000E-99   1.0000E-99   1.0000E-99   1.0000E-99   1.0000E-99
   2.9500E+04   1.0000E-99   1.0000E-99   1.0000E-99   1.0000E-99   1.0000E-99   1.0000E-99   1.0000E-99   1.0000E-99
   3.0000E+04   1.0000E-99   1.0000E-99   1.0000E-99   1.0000E-99   1.0000E-99   1.0000E-99   1.0000E-99   1.0000E-99
   3.0500E+04   1.0000E-99   1.0000E-99   1.0000E-99   1.0000E-99   1.0000E-99   1.0000E-99   1.0000E-99   1.0000E-99
   3.1000E+04   1.0000E-99   1.0000E-99   1.0000E-99   1.0000E-99   1.0000E-99   1.0000E-99   1.0000E-99   1.0000E-99
   3.1500E+04   1.0000E-99   1.0000E-99   1.0000E-99   1.0000E-99   1.0000E-99   1.0000E-99   1.0000E-99   1.0000E-99
   3.2000E+04   1.0000E-99   1.0000E-99   1.0000E-99   1.0000E-99   1.0000E-99   1.0000E-99   1.0000E-99   1.0000E-99
   3.2500E+04   1.0000E-99   1.0000E-99   1.0000E-99   1.0000E-99   1.0000E-99   1.0000E-99   1.0000E-99   1.0000E-99
   3.3000E+04   1.0000E-99   1.0000E-99   1.0000E-99   1.0000E-99   1.0000E-99   1.0000E-99   1.0000E-99   1.0000E-99
   3.3500E+04   1.0000E-99   1.0000E-99   1.0000E-99   1.0000E-99   1.0000E-99   1.0000E-99   1.0000E-99   1.0000E-99
   3.4000E+04   1.0000E-99   1.0000E-99   1.0000E-99   1.0000E-99   1.0000E-99   1.0000E-99   1.0000E-99   1.0000E-99
   3.4500E+04   1.0000E-99   1.0000E-99   1.0000E-99   1.0000E-99   1.0000E-99   1.0000E-99   1.0000E-99   1.0000E-99
   3.5000E+04   1.0000E-99   1.0000E-99   1.0000E-99   1.0000E-99   1.0000E-99   1.0000E-99   1.0000E-99   1.0000E-99
   3.5500E+04   1.0000E-99   1.0000E-99   1.0000E-99   1.0000E-99   1.0000E-99   1.0000E-99   1.0000E-99   1.0000E-99
   3.6000E+04   1.0000E-99   1.0000E-99   1.0000E-99   1.0000E-99   1.0000E-99   1.0000E-99   1.0000E-99   1.0000E-99
   3.6500E+04   1.0000E-99   1.0000E-99   1.0000E-99   1.0000E-99   1.0000E-99   1.0000E-99   1.0000E-99   1.0000E-99
   3.7000E+04   1.0000E-99   1.0000E-99   1.0000E-99   1.0000E-99   1.0000E-99   1.0000E-99   1.0000E-99   1.0000E-99
   3.7500E+04   1.0000E-99   1.0000E-99   1.0000E-99   1.0000E-99   1.0000E-99   1.0000E-99   1.0000E-99   1.0000E-99
   3.8000E+04   1.0000E-99   1.0000E-99   1.0000E-99   1.0000E-99   1.0000E-99   1.0000E-99   1.0000E-99   1.0000E-99
   3.8500E+04   1.0000E-99   1.0000E-99   1.0000E-99   1.0000E-99   1.0000E-99   1.0000E-99   1.0000E-99   1.0000E-99
   3.9000E+04   1.0000E-99   1.0000E-99   1.0000E-99   1.0000E-99   1.0000E-99   1.0000E-99   1.0000E-99   1.0000E-99
   3.9500E+04   1.0000E-99   1.0000E-99   1.0000E-99   1.0000E-99   1.0000E-99   1.0000E-99   1.0000E-99   1.0000E-99
   4.0000E+04   1.0000E-99   1.0000E-99   1.0000E-99   1.0000E-99   1.0000E-99   1.0000E-99   1.0000E-99   1.0000E-99
#TIME: 3.0
#NVEL: 100
#vel_mid[km/s]    fe0          fe1          fe2          fe3          fe4          fe5          fe6          fe7
   2.0000E+02   3.6853E-47   9.7997E-38   5.6012E-29   5.5474E-21   6.7475E-14   5.3328E-08   1.6110E-03   9.9839E-01
   4.0000E+02   3.8987E-47   1.0755E-37   6.3226E-29   6.3765E-21   7.7614E-14   6.0064E-08   1.7331E-03   9.9827E-01
   6.0000E+02   4.9297E-47   1.4036E-37   8.4126E-29   8.5239E-21   1.0162E-13   7.4617E-08   1.9703E-03   9.9803E-01
   8.0000E+02   7.0764E-47   2.0706E-37   1.2566E-28   1.2665E-20   1.4561E-13   9.9220E-08   2.3270E-03   9.9767E-01
   1.0000E+03   1.1048E-46   3.3124E-37   2.0262E-28   2.0180E-20   2.2147E-13   1.3799E-07   2.8181E-03   9.9718E-01
   1.2000E+03   1.8257E-46   5.5983E-37   3.4413E-28   3.3719E-20   3.5080E-13   1.9783E-07   3.4713E-03   9.9653E-01
   1.4000E+03   3.1425E-46   9.8417E-37   6.0672E-28   5.8304E-20   5.7216E-13   2.8992E-07   4.3284E-03   9.9567E-01
   1.6000E+03   5.5854E-46   1.7847E-36   1.1017E-27   1.0359E-19   9.5503E-13   4.3225E-07   5.4488E-03   9.9455E-01
   1.8000E+03   1.0199E-45   3.3224E-36   2.0511E-27   1.8832E-19   1.6257E-12   6.5395E-07   6.9144E-03   9.9308E-01
   2.0000E+03   1.9067E-45   6.3282E-36   3.9035E-27   3.4936E-19   2.8155E-12   1.0021E-06   8.8356E-03   9.9116E-01
   2.2000E+03   3.6413E-45   1.2307E-35   7.5786E-27   6.6022E-19   4.9537E-12   1.5536E-06   1.1362E-02   9.8864E-01
   2.4000E+03   7.0966E-45   2.4413E-35   1.4996E-26   1.2698E-18   8.8469E-12   2.4352E-06   1.4694E-02   9.8530E-01
   2.6000E+03   1.4094E-44   4.9330E-35   3.0209E-26   2.4830E-18   1.6023E-11   3.8564E-06   1.9104E-02   9.8089E-01
   2.8000E+03   2.8504E-44   1.0148E-34   6.1911E-26   4.9334E-18   2.9415E-11   6.1664E-06   2.4958E-02   9.7504E-01
   3.0000E+03   5.8639E-44   2.1228E-34   1.2896E-25   9.9510E-18   5.4687E-11   9.9493E-06   3.2740E-02   9.6725E-01
   3.2000E+03   1.2253E-43   4.5098E-34   2.7272E-25   2.0355E-17   1.0286E-10   1.6183E-05   4.3093E-02   9.5689E-01
   3.4000E+03   2.5973E-43   9.7185E-34   5.8481E-25   4.2176E-17   1.9555E-10   2.6510E-05   5.6855E-02   9.4312E-01
   3.6000E+03   5.5726E-43   2.1201E-33   1.2693E-24   8.8381E-17   3.7514E-10   4.3673E-05   7.5088E-02   9.2487E-01
   3.8000E+03   1.2071E-42   4.6709E-33   2.7826E-24   1.8691E-16   7.2481E-10   7.2219E-05   9.9091E-02   9.0084E-01
   4.0000E+03   2.6316E-42   1.0362E-32   6.1438E-24   3.9792E-16   1.4070E-09   1.1960E-04   1.3037E-01   8.6951E-01
   4.2000E+03   5.7498E-42   2.3058E-32   1.3613E-23   8.4988E-16   2.7353E-09   1.9774E-04   1.7049E-01   8.2931E-01
   4.4000E+03   1.2536E-41   5.1255E-32   3.0155E-23   1.8144E-15   5.3064E-09   3.2527E-04   2.2086E-01   7.7882E-01
   4.6000E+03   2.7157E-41   1.1333E-31   6.6510E-23   3.8566E-15   1.0234E-08   5.3029E-04   2.8229E-01   7.1718E-01
   4.8000E+03   5.8224E-41   2.4836E-31   1.4553E-22   8.1322E-15   1.9545E-08   8.5345E-04   3.5451E-01   6.4464E-01
   5.0000E+03   1.2333E-40   5.3830E-31   3.1517E-22   1.6967E-14   3.6860E-08   1.3513E-03   4.3568E-01   5.6297E-01
   5.2500E+03   3.1039E-40   1.3954E-30   8.1639E-22   4.1887E-14   7.9873E-08   2.3381E-03   5.4428E-01   4.5338E-01
   5.5000E+03   7.7547E-40   3.5882E-30   2.0946E-21   1.0207E-13   1.6969E-07   3.9280E-03   6.5179E-01   3.4428E-01
   5.7500E+03   1.9555E-39   9.2872E-30   5.3902E-21   2.4795E-13   3.5594E-07   6.4313E-03   7.4815E-01   2.4542E-01
   6.0000E+03   5.0790E-39   2.4646E-29   1.4143E-20   6.0902E-13   7.4546E-07   1.0340E-02   8.2576E-01   1.6390E-01
   6.2500E+03   1.3856E-38   6.8326E-29   3.8502E-20   1.5365E-12   1.5793E-06   1.6482E-02   8.8100E-01   1.0252E-01
   6.5000E+03   4.0373E-38   2.0120E-28   1.1055E-19   4.0423E-12   3.4293E-06   2.6308E-02   9.1363E-01   6.0055E-02
   6.7500E+03   1.2861E-37   6.4376E-28   3.4204E-19   1.1309E-11   7.7545E-06   4.2507E-02   9.2469E-01   3.2792E-02
   7.0000E+03   4.7574E-37   2.3626E-27   1.1957E-18   3.4976E-11   1.8783E-05   7.0587E-02   9.1302E-01   1.6376E-02
   7.2500E+03   2.0604E-36   1.0035E-26   4.7650E-18   1.2051E-10   4.8948E-05   1.2037E-01   8.7223E-01   7.3438E-03
   7.5000E+03   1.0299E-35   4.8722E-26   2.1416E-17   4.5760E-10   1.3556E-04   2.0752E-01   7.8947E-01   2.8746E-03
   8.0000E+03   3.6018E-34   1.5514E-24   5.5645E-16   7.8211E-09   1.0857E-03   5.4257E-01   4.5611E-01   2.3513E-04
   8.5000E+03   1.7865E-32   6.5105E-23   1.7325E-14   1.3795E-07   7.2041E-03   8.7966E-01   1.1313E-01   5.2275E-06
   9.0000E+03   1.4153E-30   4.1602E-21   7.5871E-13   2.9277E-06   4.4735E-02   9.4347E-01   1.1791E-02   2.7451E-08
   9.5000E+03   2.3396E-28   5.3362E-19   6.1168E-11   9.3986E-05   3.0298E-01   6.9647E-01   4.5981E-04   2.4724E-11
   1.0000E+04   3.8773E-26   6.5350E-17   4.1897E-09   1.9750E-03   8.7711E-01   1.2092E-01   1.9134E-06   8.6432E-16
   1.0500E+04   6.2659E-24   7.3715E-15   2.3020E-07   2.4972E-02   9.7073E-01   4.2960E-03   7.1972E-10   9.6872E-22
   1.1000E+04   2.6287E-21   1.9736E-12   2.3908E-05   3.7833E-01   6.2161E-01   3.2422E-05   1.5523E-14   1.1743E-29
   1.1500E+04   3.4838E-19   1.7058E-10   6.7300E-04   9.7098E-01   2.8351E-02   4.9289E-09   1.2077E-21   5.4180E-41
   1.2000E+04   2.8892E-17   8.7950E-09   9.7034E-03   9.8997E-01   3.2781E-04   1.0425E-13   5.9599E-30   5.8107E-54
   1.2500E+04   1.0000E-99   1.0000E-99   1.0000E-99   1.0000E-99   1.0000E-99   1.0000E-99   1.0000E-99   1.0000E-99
   1.3000E+04   1.0000E-99   1.0000E-99   1.0000E-99   1.0000E-99   1.0000E-99   1.0000E-99   1.0000E-99   1.0000E-99
   1.3500E+04   1.0000E-99   1.0000E-99   1.0000E-99   1.0000E-99   1.0000E-99   1.0000E-99   1.0000E-99   1.0000E-99
   1.4000E+04   1.0000E-99   1.0000E-99   1.0000E-99   1.0000E-99   1.0000E-99   1.0000E-99   1.0000E-99   1.0000E-99
   1.4500E+04   1.0000E-99   1.0000E-99   1.0000E-99   1.0000E-99   1.0000E-99   1.0000E-99   1.0000E-99   1.0000E-99
   1.5000E+04   1.0000E-99   1.0000E-99   1.0000E-99   1.0000E-99   1.0000E-99   1.0000E-99   1.0000E-99   1.0000E-99
   1.5500E+04   1.0000E-99   1.0000E-99   1.0000E-99   1.0000E-99   1.0000E-99   1.0000E-99   1.0000E-99   1.0000E-99
   1.6000E+04   1.0000E-99   1.0000E-99   1.0000E-99   1.0000E-99   1.0000E-99   1.0000E-99   1.0000E-99   1.0000E-99
   1.6500E+04   1.0000E-99   1.0000E-99   1.0000E-99   1.0000E-99   1.0000E-99   1.0000E-99   1.0000E-99   1.0000E-99
   1.7000E+04   1.0000E-99   1.0000E-99   1.0000E-99   1.0000E-99   1.0000E-99   1.0000E-99   1.0000E-99   1.0000E-99
   1.7500E+04   1.0000E-99   1.0000E-99   1.0000E-99   1.0000E-99   1.0000E-99   1.0000E-99   1.0000E-99   1.0000E-99
   1.8000E+04   1.0000E-99   1.0000E-99   1.0000E-99   1.0000E-99   1.0000E-99   1.0000E-99   1.0000E-99   1.0000E-99
   1.8500E+04   1.0000E-99   1.0000E-99   1.0000E-99   1.0000E-99   1.0000E-99   1.0000E-99   1.0000E-99   1.0000E-99
   1.9000E+04   1.0000E-99   1.0000E-99   1.0000E-99   1.0000E-99   1.0000E-99   1.0000E-99   1.0000E-99   1.0000E-99
   1.9500E+04   1.0000E-99   1.0000E-99   1.0000E-99   1.0000E-99   1.0000E-99   1.0000E-99   1.0000E-99   1.0000E-99
   2.0000E+04   1.0000E-99   1.0000E-99   1.0000E-99   1.0000E-99   1.0000E-99   1.0000E-99   1.0000E-99   1.0000E-99
   2.0500E+04   1.0000E-99   1.0000E-99   1.0000E-99   1.0000E-99   1.0000E-99   1.0000E-99   1.0000E-99   1.0000E-99
