#NTIMES:    57
#NSTAGES:     6
#TIMES[d]:     2.000    2.020    2.050    2.100    2.200    2.400    2.640    2.900    3.190    3.510    3.860    4.250    4.670    5.140    5.650    6.210    6.830    7.510    8.260    9.090   10.000   11.000   12.100   13.310   14.640   16.100   17.710   19.480   21.430   23.570   25.930   28.520   31.370   34.510   38.000   41.000   45.100   49.610   54.570   60.030   66.000   72.560   80.000   88.000   97.000  107.000  117.000  127.000  137.000  147.000  157.000  167.000  177.000  187.000  197.000  207.000  217.000
#
#TIME:     2.000
#NVEL: 100
#vel_mid[km/s]           fe0           fe1           fe2           fe3           fe4           fe5
    1.025000E+03   9.9188E-041   3.2119E-030   7.0732E-022   9.7968E-014   1.4759E-006   1.0000E+000
    1.037120E+03   9.7275E-041   3.1626E-030   6.9908E-022   9.7198E-014   1.4700E-006   1.0000E+000
    1.061360E+03   9.5564E-041   3.1227E-030   6.9380E-022   9.6952E-014   1.4696E-006   1.0000E+000
    1.109839E+03   9.5711E-041   3.1450E-030   7.0265E-022   9.8310E-014   1.4850E-006   1.0000E+000
    1.213017E+03   1.0021E-040   3.3159E-030   7.4573E-022   1.0338E-013   1.5373E-006   1.0000E+000
    1.325723E+03   1.0642E-040   3.5444E-030   8.0190E-022   1.0971E-013   1.6008E-006   1.0000E+000
    1.448902E+03   1.1412E-040   3.8265E-030   8.7102E-022   1.1733E-013   1.6756E-006   1.0000E+000
    1.583526E+03   1.2363E-040   4.1739E-030   9.5612E-022   1.2654E-013   1.7638E-006   1.0000E+000
    1.730658E+03   1.3548E-040   4.6066E-030   1.0621E-021   1.3781E-013   1.8685E-006   1.0000E+000
    1.891461E+03   1.5004E-040   5.1409E-030   1.1936E-021   1.5152E-013   1.9921E-006   1.0000E+000
    2.067205E+03   1.6866E-040   5.8240E-030   1.3620E-021   1.6867E-013   2.1411E-006   1.0000E+000
    2.259278E+03   1.9242E-040   6.6987E-030   1.5784E-021   1.9019E-013   2.3210E-006   1.0000E+000
    2.469197E+03   2.2429E-040   7.8703E-030   1.8680E-021   2.1821E-013   2.5442E-006   1.0000E+000
    2.698621E+03   2.6715E-040   9.4488E-030   2.2594E-021   2.5492E-013   2.8219E-006   1.0000E+000
    2.949361E+03   3.2633E-040   1.1632E-029   2.8020E-021   3.0413E-013   3.1725E-006   1.0000E+000
    3.223399E+03   4.1123E-040   1.4764E-029   3.5812E-021   3.7219E-013   3.6250E-006   1.0000E+000
    3.522899E+03   5.3702E-040   1.9404E-029   4.7366E-021   4.6905E-013   4.2197E-006   1.0000E+000
    3.850227E+03   7.3140E-040   2.6567E-029   6.5204E-021   6.1193E-013   5.0201E-006   9.9999E-001
    4.207968E+03   1.0467E-039   3.8155E-029   9.4042E-021   8.3167E-013   6.1262E-006   9.9999E-001
    4.598949E+03   1.5879E-039   5.7959E-029   1.4322E-020   1.1864E-012   7.7024E-006   9.9999E-001
    5.026257E+03   2.5802E-039   9.4038E-029   2.3247E-020   1.7921E-012   1.0029E-005   9.9999E-001
    5.493268E+03   4.5480E-039   1.6494E-028   4.0691E-020   2.8982E-012   1.3608E-005   9.9999E-001
    6.003672E+03   8.8089E-039   3.1656E-028   7.7729E-020   5.0744E-012   1.9364E-005   9.9998E-001
    6.563976E+03   1.9490E-038   6.9134E-028   1.6891E-019   9.8768E-012   2.9318E-005   9.9997E-001
    7.150150E+03   7.1945E-038   2.4194E-027   5.7451E-019   2.6620E-011   5.3269E-005   9.9995E-001
    7.624563E+03   3.9323E-037   1.1595E-026   2.4788E-018   8.7490E-011   1.0768E-004   9.9989E-001
    8.015598E+03   2.8205E-036   6.9942E-026   1.2871E-017   3.3025E-010   2.3448E-004   9.9977E-001
    8.365060E+03   2.8181E-035   5.6658E-025   8.6576E-017   1.5248E-009   5.7175E-004   9.9943E-001
    8.678533E+03   3.6614E-034   5.8139E-024   7.2016E-016   8.3183E-009   1.5306E-003   9.9847E-001
    8.970829E+03   6.3808E-033   7.7976E-023   7.6529E-015   5.4982E-008   4.5607E-003   9.9544E-001
    9.225513E+03   1.1445E-031   1.0784E-021   8.3950E-014   3.7008E-007   1.3652E-002   9.8635E-001
    9.474694E+03   2.7764E-030   1.9763E-020   1.1950E-012   3.0514E-006   4.5380E-002   9.5462E-001
    9.694307E+03   6.1597E-029   3.3512E-019   1.5828E-011   2.3439E-005   1.4030E-001   8.5968E-001
    9.904307E+03   1.4359E-027   5.8784E-018   2.1203E-010   1.7285E-004   3.8386E-001   6.1597E-001
    1.009658E+04   2.5204E-026   7.7103E-017   2.0881E-009   9.0890E-004   7.1538E-001   2.8371E-001
    1.028085E+04   3.7251E-025   8.3800E-016   1.6554E-008   3.6190E-003   9.1727E-001   7.9108E-002
    1.045267E+04   5.1835E-024   8.5650E-015   1.2105E-007   1.2730E-002   9.7069E-001   1.6583E-002
    1.061724E+04   8.2954E-023   9.9802E-014   9.7589E-007   4.6151E-002   9.5107E-001   2.7827E-003
    1.077223E+04   1.4426E-021   1.2584E-012   8.2439E-006   1.6502E-001   8.3460E-001   3.6649E-004
    1.091419E+04   2.0188E-020   1.2932E-011   5.5963E-005   4.5986E-001   5.4005E-001   3.2867E-005
    1.104427E+04   1.7480E-019   8.4207E-011   2.3996E-004   7.9346E-001   2.0630E-001   1.6190E-006
    1.116962E+04   1.1417E-018   4.1891E-010   7.6711E-004   9.5141E-001   4.7822E-002   3.9884E-008
    1.128592E+04   7.2002E-018   2.0104E-009   2.2785E-003   9.8919E-001   8.5345E-003   6.4374E-010
    1.138719E+04   4.8718E-017   1.0123E-008   6.7924E-003   9.9181E-001   1.4005E-003   9.0949E-012
    1.148357E+04   4.1316E-016   6.1443E-008   2.2553E-002   9.7726E-001   1.8397E-004   7.8681E-014
    1.157588E+04   4.0355E-015   4.2300E-007   8.0086E-002   9.1989E-001   1.8615E-005   3.9065E-016
    1.165789E+04   3.3144E-014   2.5224E-006   2.4788E-001   7.5211E-001   1.5574E-006   1.4845E-018
    1.172968E+04   1.8858E-013   1.0728E-005   5.5326E-001   4.4673E-001   9.2509E-008   3.8883E-021
    1.179602E+04   7.9795E-013   3.3001E-005   8.3827E-001   1.6170E-001   2.7662E-009   1.7311E-023
    1.185624E+04   2.9293E-012   8.3306E-005   9.6046E-001   3.9452E-002   4.6264E-011   3.3379E-024
    1.191139E+04   1.0765E-011   2.0265E-004   9.9200E-001   7.7980E-003   5.1411E-013   6.5355E-025
    1.196310E+04   4.2994E-011   5.1883E-004   9.9818E-001   1.2966E-003   3.6169E-015   1.0761E-025
    1.200903E+04   1.7518E-010   1.3561E-003   9.9844E-001   2.0044E-004   2.0319E-017   1.6826E-026
    1.204957E+04   7.1822E-010   3.6059E-003   9.9636E-001   2.9221E-005   9.4242E-020   2.5449E-027
    1.208724E+04   3.4522E-009   1.0774E-002   9.8922E-001   3.4046E-006   4.0015E-022   3.0468E-028
    1.211780E+04   1.5936E-008   3.1431E-002   9.6857E-001   4.0910E-007   1.5393E-022   3.7134E-029
    1.214029E+04   5.3743E-008   7.4206E-002   9.2579E-001   6.7755E-008   1.4513E-022   6.3395E-030
    1.215784E+04   1.3669E-007   1.4448E-001   8.5552E-001   1.4266E-008   1.3708E-022   1.4030E-030
    1.217298E+04   2.9234E-007   2.4876E-001   7.5124E-001   3.1708E-009   1.2530E-022   3.3146E-031
    1.218654E+04   5.4717E-007   3.8535E-001   6.1465E-001   6.8821E-010   1.0692E-022   7.6219E-032
    1.220016E+04   9.6009E-007   5.5614E-001   4.4386E-001   1.1576E-010   7.9841E-023   1.3429E-032
    1.221368E+04   1.5320E-006   7.2420E-001   2.7579E-001   1.4931E-011   5.0335E-023   1.7754E-033
    1.222859E+04   2.3173E-006   8.6636E-001   1.3364E-001   1.0024E-012   2.4243E-023   1.1959E-034
    1.224457E+04   3.2345E-006   9.4693E-001   5.3069E-002   3.8428E-014   9.3979E-024   4.5150E-036
    1.225965E+04   4.0907E-006   9.7755E-001   2.2446E-002   1.6646E-015   3.8648E-024   1.9159E-037
    1.227256E+04   4.7525E-006   9.8775E-001   1.2250E-002   1.4946E-016   2.0668E-024   1.6953E-038
    1.228514E+04   5.3749E-006   9.9281E-001   7.1878E-003   1.2207E-017   1.1903E-024   1.3674E-039
    1.229683E+04   5.9129E-006   9.9515E-001   4.8446E-003   1.2917E-018   7.8760E-025   1.4296E-040
    1.232733E+04   6.8728E-006   9.9645E-001   3.5413E-003   1.0164E-019   5.5715E-025   1.0984E-041
    1.289197E+04   1.4633E-005   9.9862E-001   1.3689E-003   9.8116E-021   2.2757E-025   1.1252E-042
    1.402569E+04   4.8659E-005   9.9979E-001   1.5879E-004   1.8507E-022   2.9384E-026   2.3742E-044
    1.518573E+04   1.1510E-004   9.9986E-001   2.8770E-005   1.1040E-022   5.8423E-027   1.5589E-044
    1.632859E+04   2.2307E-004   9.9977E-001   8.5651E-006   1.1725E-022   1.8819E-027   1.7959E-044
    1.745157E+04   3.5136E-004   9.9964E-001   3.7090E-006   1.2534E-022   8.7184E-028   2.0583E-044
    1.855827E+04   4.7563E-004   9.9952E-001   2.0809E-006   1.3293E-022   5.1873E-028   2.3195E-044
    1.963325E+04   5.6359E-004   9.9944E-001   1.3830E-006   1.3988E-022   3.6278E-028   2.5723E-044
    2.068109E+04   6.1375E-004   9.9939E-001   1.0175E-006   1.4625E-022   2.7916E-028   2.8166E-044
    2.170537E+04   6.3430E-004   9.9936E-001   7.9621E-007   1.5212E-022   2.2734E-028   3.0522E-044
    2.269952E+04   6.3400E-004   9.9937E-001   6.6061E-007   1.5750E-022   1.9539E-028   3.2769E-044
    2.366536E+04   6.1778E-004   9.9938E-001   5.7624E-007   1.6244E-022   1.7587E-028   3.4905E-044
    2.460914E+04   5.8794E-004   9.9941E-001   5.2568E-007   1.6701E-022   1.6501E-028   3.6946E-044
    2.553354E+04   5.4664E-004   9.9945E-001   4.9583E-007   1.7126E-022   1.5965E-028   3.8899E-044
    2.644080E+04   4.9668E-004   9.9950E-001   4.8130E-007   1.7522E-022   1.5859E-028   4.0774E-044
    2.733350E+04   4.4441E-004   9.9956E-001   4.7427E-007   1.7893E-022   1.5962E-028   4.2582E-044
    2.821284E+04   3.9165E-004   9.9961E-001   4.6813E-007   1.8242E-022   1.6066E-028   4.4329E-044
    2.908138E+04   3.4289E-004   9.9966E-001   4.5591E-007   1.8572E-022   1.5934E-028   4.6022E-044
    2.994295E+04   2.9609E-004   9.9970E-001   4.3628E-007   1.8885E-022   1.5510E-028   4.7669E-044
    3.079959E+04   2.5355E-004   9.9975E-001   4.1515E-007   1.9185E-022   1.4999E-028   4.9272E-044
    3.165298E+04   2.1378E-004   9.9979E-001   4.1150E-007   1.9471E-022   1.5094E-028   5.0833E-044
    3.250461E+04   1.7695E-004   9.9982E-001   4.5092E-007   1.9745E-022   1.6778E-028   5.2353E-044
    3.335585E+04   1.4352E-004   9.9986E-001   5.6377E-007   2.0008E-022   2.1261E-028   5.3837E-044
    3.420806E+04   1.1187E-004   9.9989E-001   8.2397E-007   2.0260E-022   3.1472E-028   5.5287E-044
    3.506257E+04   8.4011E-005   9.9991E-001   1.4620E-006   2.0503E-022   5.6518E-028   5.6701E-044
    3.592077E+04   5.9868E-005   9.9994E-001   2.6370E-006   2.0737E-022   1.0312E-027   5.8074E-044
    3.678416E+04   3.8626E-005   9.9996E-001   6.3392E-006   2.0963E-022   2.5061E-027   5.9409E-044
    3.765440E+04   1.9892E-005   9.9996E-001   1.7178E-005   2.1183E-022   6.8624E-027   6.0713E-044
    3.853330E+04   1.2480E-005   9.9995E-001   3.6107E-005   2.1398E-022   1.4569E-026   6.1987E-044
    3.942287E+04   1.0638E-005   9.9995E-001   4.1706E-005   2.1604E-022   1.6989E-026   6.3217E-044
    4.030996E+04   7.7718E-006   9.9996E-001   3.4217E-005   2.1566E-022   1.3903E-026   6.2713E-044
    4.032500E+04   7.9372E-006   9.9996E-001   3.2422E-005   1.0233E-022   6.4464E-027   1.6795E-044
#TIME:     2.020
#NVEL: 111
#vel_mid[km/s]           fe0           fe1           fe2           fe3           fe4           fe5
    1.025000E+03   1.0689E-040   3.4603E-030   7.6186E-022   1.0473E-013   1.5398E-006   1.0000E+000
    1.037120E+03   1.0458E-040   3.4003E-030   7.5186E-022   1.0382E-013   1.5330E-006   1.0000E+000
    1.061360E+03   1.0132E-040   3.3177E-030   7.3880E-022   1.0267E-013   1.5252E-006   1.0000E+000
    1.109839E+03   9.8640E-041   3.2609E-030   7.3301E-022   1.0242E-013   1.5269E-006   1.0000E+000
    1.213017E+03   1.0097E-040   3.3716E-030   7.6524E-022   1.0636E-013   1.5694E-006   1.0000E+000
    1.325723E+03   1.0675E-040   3.5902E-030   8.2032E-022   1.1262E-013   1.6323E-006   1.0000E+000
    1.448902E+03   1.1445E-040   3.8751E-030   8.9097E-022   1.2046E-013   1.7088E-006   1.0000E+000
    1.583526E+03   1.2405E-040   4.2292E-030   9.7860E-022   1.3001E-013   1.7994E-006   1.0000E+000
    1.730658E+03   1.3604E-040   4.6706E-030   1.0878E-021   1.4169E-013   1.9071E-006   1.0000E+000
    1.891461E+03   1.5087E-040   5.2187E-030   1.2240E-021   1.5597E-013   2.0346E-006   1.0000E+000
    2.067205E+03   1.6979E-040   5.9185E-030   1.3981E-021   1.7381E-013   2.1883E-006   1.0000E+000
    2.259278E+03   1.9407E-040   6.8189E-030   1.6230E-021   1.9630E-013   2.3744E-006   1.0000E+000
    2.469197E+03   2.2656E-040   8.0226E-030   1.9235E-021   2.2551E-013   2.6048E-006   1.0000E+000
    2.698621E+03   2.7036E-040   9.6485E-030   2.3306E-021   2.6388E-013   2.8918E-006   1.0000E+000
    2.949361E+03   3.3101E-040   1.1902E-029   2.8961E-021   3.1541E-013   3.2547E-006   1.0000E+000
    3.223399E+03   4.1806E-040   1.5139E-029   3.7090E-021   3.8673E-013   3.7231E-006   1.0000E+000
    3.522899E+03   5.4727E-040   1.9941E-029   4.9165E-021   4.8835E-013   4.3392E-006   1.0000E+000
    3.850227E+03   7.4719E-040   2.7364E-029   6.7833E-021   6.3843E-013   5.1685E-006   9.9999E-001
    4.207968E+03   1.0719E-039   3.9389E-029   9.8049E-021   8.6945E-013   6.3149E-006   9.9999E-001
    4.598949E+03   1.6297E-039   5.9965E-029   1.4964E-020   1.2426E-012   7.9489E-006   9.9999E-001
    5.026257E+03   2.6525E-039   9.7461E-029   2.4330E-020   1.8801E-012   1.0360E-005   9.9999E-001
    5.322738E+03   3.7901E-039   1.3888E-028   3.4631E-020   2.5447E-012   1.2558E-005   9.9999E-001
    5.636785E+03   5.6131E-039   2.0480E-028   5.0953E-020   3.5502E-012   1.5503E-005   9.9998E-001
    5.969249E+03   8.6701E-039   3.1449E-028   7.7997E-020   5.1295E-012   1.9544E-005   9.9998E-001
    6.324633E+03   1.4030E-038   5.0590E-028   1.2521E-019   7.6960E-012   2.5191E-005   9.9997E-001
    6.696793E+03   2.7336E-038   9.6708E-028   2.3715E-019   1.3035E-011   3.4757E-005   9.9997E-001
    7.079796E+03   6.5300E-038   2.2254E-027   5.3455E-019   2.5187E-011   5.1692E-005   9.9995E-001
    7.407135E+03   1.8380E-037   5.8139E-027   1.3184E-018   5.2429E-011   7.9931E-005   9.9992E-001
    7.692817E+03   5.7154E-037   1.6465E-026   3.4530E-018   1.1420E-010   1.2652E-004   9.9987E-001
    7.943790E+03   1.9873E-036   5.1243E-026   9.7639E-018   2.6347E-010   2.0642E-004   9.9979E-001
    8.178255E+03   7.9705E-036   1.8100E-025   3.0860E-017   6.6298E-010   3.5349E-004   9.9965E-001
    8.396906E+03   3.6122E-035   7.1346E-025   1.0761E-016   1.8028E-009   6.3213E-004   9.9937E-001
    8.600030E+03   1.8113E-034   3.0809E-024   4.0735E-016   5.2303E-009   1.1718E-003   9.9883E-001
    8.794946E+03   1.0287E-033   1.4908E-023   1.7114E-015   1.6490E-008   2.2763E-003   9.9772E-001
    8.979615E+03   6.4143E-033   7.8638E-023   7.7859E-015   5.5393E-008   4.5804E-003   9.9542E-001
    9.145090E+03   3.8809E-032   4.0443E-022   3.4665E-014   1.8268E-007   9.1032E-003   9.9090E-001
    9.307344E+03   2.6499E-031   2.3282E-021   1.7135E-013   6.5347E-007   1.8904E-002   9.8110E-001
    9.467105E+03   2.0635E-030   1.5151E-020   9.4852E-013   2.5514E-006   4.1044E-002   9.5895E-001
    9.611352E+03   1.5157E-029   9.3651E-020   5.0098E-012   9.5464E-006   8.5993E-002   9.1400E-001
    9.749622E+03   1.1577E-028   5.9910E-019   2.7194E-011   3.6033E-005   1.7668E-001   8.2328E-001
    9.884725E+03   9.1479E-028   3.9244E-018   1.4917E-010   1.3354E-004   3.4125E-001   6.5861E-001
    1.001128E+04   6.3885E-027   2.2665E-017   7.1660E-010   4.2819E-004   5.6071E-001   4.3887E-001
    1.013294E+04   3.9644E-026   1.1571E-016   3.0119E-009   1.1772E-003   7.6557E-001   2.3325E-001
    1.025192E+04   2.2979E-025   5.4865E-016   1.1617E-008   2.8933E-003   8.9654E-001   1.0057E-001
    1.036523E+04   1.2548E-024   2.4554E-015   4.2072E-008   6.5957E-003   9.5499E-001   3.8413E-002
    1.047433E+04   6.8692E-024   1.1021E-014   1.5168E-007   1.4731E-002   9.7173E-001   1.3541E-002
    1.058087E+04   3.9441E-023   5.1741E-014   5.6519E-007   3.3221E-002   9.6236E-001   4.4209E-003
    1.068358E+04   2.3471E-022   2.5140E-013   2.1545E-006   7.5049E-002   9.2361E-001   1.3374E-003
    1.078178E+04   1.4125E-021   1.2347E-012   8.2027E-006   1.6554E-001   8.3409E-001   3.6188E-004
    1.087424E+04   7.9845E-021   5.7147E-012   2.9154E-005   3.3411E-001   6.6578E-001   8.2430E-005
    1.096142E+04   3.8720E-020   2.2835E-011   8.8814E-005   5.6763E-001   4.3226E-001   1.4539E-005
    1.104427E+04   1.5221E-019   7.4696E-011   2.2097E-004   7.7880E-001   2.2098E-001   1.9436E-006
    1.116962E+04   9.5236E-019   3.5794E-010   6.8953E-004   9.4437E-001   5.4942E-002   5.5718E-008
    1.128592E+04   5.2693E-018   1.5339E-009   1.8965E-003   9.8684E-001   1.1260E-002   1.2381E-009
    1.138719E+04   2.9324E-017   6.5450E-009   5.0639E-003   9.9271E-001   2.2234E-003   2.6854E-011
    1.148357E+04   1.9915E-016   3.2915E-008   1.4857E-002   9.8478E-001   3.6472E-004   3.8747E-013
    1.157588E+04   1.6191E-015   1.9390E-007   4.7899E-002   9.5205E-001   4.7102E-005   3.3023E-015
    1.165789E+04   1.2590E-014   1.1099E-006   1.4838E-001   8.5161E-001   5.1137E-006   2.0631E-017
    1.172968E+04   7.7230E-014   5.1472E-006   3.7592E-001   6.2408E-001   4.4042E-007   9.7258E-020
    1.179602E+04   3.3149E-013   1.6896E-005   6.7456E-001   3.2543E-001   2.6657E-008   3.4252E-022
    1.185624E+04   1.0168E-012   3.9405E-005   8.7010E-001   1.2987E-001   1.3882E-009   1.1997E-023
    1.191139E+04   2.6690E-012   7.7783E-005   9.5391E-001   4.6011E-002   6.9924E-011   3.9384E-024
    1.196310E+04   6.6674E-012   1.4515E-004   9.8438E-001   1.5471E-002   3.3872E-012   1.3210E-024
    1.200903E+04   1.5600E-011   2.5750E-004   9.9433E-001   5.4101E-003   1.8814E-013   4.5946E-025
    1.204957E+04   3.4289E-011   4.3782E-004   9.9755E-001   2.0097E-003   1.2367E-014   1.7006E-025
    1.208724E+04   7.3216E-011   7.3099E-004   9.9850E-001   7.6541E-004   8.6571E-016   6.4849E-026
    1.211780E+04   1.3720E-010   1.1192E-003   9.9854E-001   3.4113E-004   9.2752E-017   2.9097E-026
    1.214029E+04   2.1857E-010   1.5368E-003   9.9828E-001   1.8626E-004   1.7333E-017   1.6031E-026
    1.215784E+04   3.1435E-010   1.9697E-003   9.9791E-001   1.1575E-004   4.6245E-018   1.0054E-026
    1.217298E+04   4.2921E-010   2.4377E-003   9.9749E-001   7.6848E-005   1.4803E-018   6.7355E-027
    1.218654E+04   5.6624E-010   2.9475E-003   9.9700E-001   5.3319E-005   5.3530E-019   4.7125E-027
    1.220016E+04   7.4697E-010   3.5642E-003   9.9640E-001   3.6981E-005   1.9339E-019   3.2959E-027
    1.221368E+04   9.8104E-010   4.2970E-003   9.9568E-001   2.5801E-005   7.1088E-020   2.3175E-027
    1.222859E+04   1.3192E-009   5.2640E-003   9.9472E-001   1.7461E-005   2.4090E-020   1.5806E-027
    1.224457E+04   1.8031E-009   6.5196E-003   9.9347E-001   1.1577E-005   7.7944E-021   1.0553E-027
    1.225965E+04   2.4107E-009   7.9514E-003   9.9204E-001   7.9108E-006   2.8140E-021   7.2507E-028
    1.227256E+04   3.0699E-009   9.3781E-003   9.9062E-001   5.7658E-006   1.2670E-021   5.3054E-028
    1.228514E+04   3.8588E-009   1.0961E-002   9.8903E-001   4.2756E-006   6.4676E-022   3.9467E-028
    1.229683E+04   4.7545E-009   1.2637E-002   9.8736E-001   3.2545E-006   3.9171E-022   3.0120E-028
    1.232733E+04   7.7563E-009   1.7625E-002   9.8237E-001   1.7190E-006   2.0329E-022   1.6001E-028
    1.289197E+04   1.3388E-006   4.9805E-001   5.0195E-001   4.0952E-010   9.5372E-023   4.9808E-032
    1.402569E+04   1.5629E-005   9.8533E-001   1.4653E-002   2.9321E-015   3.0977E-024   4.1468E-037
    1.518573E+04   6.2595E-005   9.9940E-001   5.3520E-004   1.3110E-019   1.1705E-025   1.9536E-041
    1.632859E+04   1.7887E-004   9.9979E-001   3.5757E-005   1.5457E-022   8.2129E-027   2.4518E-044
    1.745157E+04   3.5063E-004   9.9964E-001   5.5557E-006   1.2708E-022   1.3256E-027   2.1123E-044
    1.855827E+04   5.2107E-004   9.9948E-001   1.6730E-006   1.3246E-022   4.1404E-028   2.2969E-044
    1.963325E+04   6.5246E-004   9.9935E-001   7.6005E-007   1.3753E-022   1.9463E-028   2.4776E-044
    2.068109E+04   7.3439E-004   9.9927E-001   4.4682E-007   1.4210E-022   1.1798E-028   2.6470E-044
    2.170537E+04   7.7699E-004   9.9922E-001   3.0861E-007   1.4624E-022   8.3807E-029   2.8064E-044
