#NTIMES: 128
#time[d] Lbol[erg/s] Edep[erg/s] 
2.037028e+00 1.060796e+40 5.984940e+44 
2.112455e+00 2.525820e+40 3.856967e+43 
2.190675e+00 5.564543e+40 3.827541e+43 
2.271792e+00 1.190745e+41 3.800169e+43 
2.355913e+00 1.838540e+41 3.773608e+43 
2.443148e+00 2.653650e+41 3.744000e+43 
2.533613e+00 3.598442e+41 3.700207e+43 
2.627428e+00 4.556103e+41 3.675711e+43 
2.724717e+00 5.675093e+41 3.642307e+43 
2.825608e+00 7.042725e+41 3.612670e+43 
2.930235e+00 8.808449e+41 3.582976e+43 
3.038736e+00 1.073654e+42 3.538535e+43 
3.151255e+00 1.298958e+42 3.504390e+43 
3.267940e+00 1.534566e+42 3.471397e+43 
3.388946e+00 1.788496e+42 3.430874e+43 
3.514432e+00 2.096972e+42 3.398258e+43 
3.644565e+00 2.390414e+42 3.355114e+43 
3.779516e+00 2.736726e+42 3.312086e+43 
3.919465e+00 3.031461e+42 3.278599e+43 
4.064595e+00 3.414857e+42 3.232134e+43 
4.215100e+00 3.756021e+42 3.187686e+43 
4.371177e+00 4.109122e+42 3.151373e+43 
4.533034e+00 4.485675e+42 3.099154e+43 
4.700883e+00 4.826972e+42 3.062306e+43 
4.874948e+00 5.223478e+42 3.008913e+43 
5.055458e+00 5.627150e+42 2.960896e+43 
5.242653e+00 5.975769e+42 2.921844e+43 
5.436778e+00 6.431102e+42 2.870575e+43 
5.638092e+00 6.786000e+42 2.823770e+43 
5.846861e+00 7.149727e+42 2.773386e+43 
6.063359e+00 7.536708e+42 2.724567e+43 
6.287873e+00 7.951074e+42 2.673471e+43 
6.520702e+00 8.369258e+42 2.625329e+43 
6.762152e+00 8.755557e+42 2.569054e+43 
7.012541e+00 9.081369e+42 2.517054e+43 
7.272203e+00 9.531057e+42 2.463719e+43 
7.541479e+00 9.866895e+42 2.410596e+43 
7.820726e+00 1.018003e+43 2.360476e+43 
8.110313e+00 1.058922e+43 2.304225e+43 
8.410623e+00 1.093403e+43 2.250325e+43 
8.722052e+00 1.124604e+43 2.192172e+43 
9.045013e+00 1.158058e+43 2.137551e+43 
9.379933e+00 1.182729e+43 2.085344e+43 
9.727255e+00 1.214759e+43 2.030404e+43 
1.008744e+01 1.244786e+43 1.974439e+43 
1.046096e+01 1.265733e+43 1.917355e+43 
1.084831e+01 1.291355e+43 1.861545e+43 
1.125000e+01 1.309991e+43 1.806749e+43 
1.166656e+01 1.324478e+43 1.752257e+43 
1.209856e+01 1.341837e+43 1.695655e+43 
1.254655e+01 1.353070e+43 1.643593e+43 
1.301112e+01 1.362127e+43 1.587257e+43 
1.349289e+01 1.365719e+43 1.534622e+43 
1.399251e+01 1.364043e+43 1.480323e+43 
1.451063e+01 1.360995e+43 1.427170e+43 
1.504793e+01 1.352274e+43 1.375059e+43 
1.560513e+01 1.341640e+43 1.323734e+43 
1.618296e+01 1.323293e+43 1.271386e+43 
1.678218e+01 1.301279e+43 1.219867e+43 
1.740360e+01 1.274996e+43 1.172903e+43 
1.804802e+01 1.247202e+43 1.123876e+43 
1.871630e+01 1.215239e+43 1.076641e+43 
1.940933e+01 1.182219e+43 1.029796e+43 
2.012802e+01 1.146281e+43 9.862003e+42 
2.087333e+01 1.106019e+43 9.413100e+42 
2.164623e+01 1.063700e+43 8.992562e+42 
2.244774e+01 1.022362e+43 8.567489e+42 
2.327894e+01 9.757183e+42 8.172653e+42 
2.414092e+01 9.280187e+42 7.766924e+42 
2.503481e+01 8.776101e+42 7.406680e+42 
2.596181e+01 8.236425e+42 7.043396e+42 
2.692312e+01 7.714960e+42 6.703467e+42 
2.792004e+01 7.178876e+42 6.358835e+42 
2.895387e+01 6.684795e+42 6.035032e+42 
3.002597e+01 6.195919e+42 5.737086e+42 
3.113778e+01 5.805543e+42 5.429284e+42 
3.229075e+01 5.420124e+42 5.155468e+42 
3.348642e+01 5.109711e+42 4.885853e+42 
3.472636e+01 4.840018e+42 4.616044e+42 
3.601222e+01 4.633210e+42 4.367290e+42 
3.734568e+01 4.443817e+42 4.123880e+42 
3.872852e+01 4.271896e+42 3.898710e+42 
4.016256e+01 4.130692e+42 3.678852e+42 
4.164970e+01 3.975317e+42 3.465223e+42 
4.319192e+01 3.825906e+42 3.267541e+42 
4.479123e+01 3.657160e+42 3.069321e+42 
4.644977e+01 3.487712e+42 2.889532e+42 
4.816972e+01 3.286859e+42 2.712298e+42 
4.995336e+01 3.072681e+42 2.538143e+42 
5.180304e+01 2.840755e+42 2.383806e+42 
5.372120e+01 2.596074e+42 2.229574e+42 
5.571040e+01 2.349010e+42 2.084592e+42 
5.777325e+01 2.125276e+42 1.945802e+42 
5.991249e+01 1.934882e+42 1.813726e+42 
6.213094e+01 1.762701e+42 1.689292e+42 
6.443153e+01 1.616919e+42 1.572478e+42 
6.681731e+01 1.492980e+42 1.458641e+42 
6.929144e+01 1.373092e+42 1.353566e+42 
7.185717e+01 1.261154e+42 1.255953e+42 
7.451791e+01 1.164641e+42 1.163362e+42 
7.727716e+01 1.072232e+42 1.074392e+42 
8.013859e+01 9.886537e+41 9.897158e+41 
8.310597e+01 9.144678e+41 9.138817e+41 
8.618323e+01 8.442358e+41 8.421025e+41 
8.937444e+01 7.687071e+41 7.735258e+41 
9.268381e+01 7.059837e+41 7.119175e+41 
9.611572e+01 6.451595e+41 6.534612e+41 
9.967470e+01 5.882488e+41 5.990455e+41 
1.033655e+02 5.399601e+41 5.490268e+41 
1.071929e+02 4.988123e+41 5.032268e+41 
1.111621e+02 4.607581e+41 4.598026e+41 
1.152782e+02 4.289985e+41 4.202116e+41 
1.195467e+02 4.020443e+41 3.845771e+41 
1.239733e+02 3.749955e+41 3.509295e+41 
1.285638e+02 3.467551e+41 3.204679e+41 
1.333243e+02 3.217289e+41 2.914356e+41 
1.382611e+02 2.946727e+41 2.654642e+41 
1.433806e+02 2.651535e+41 2.421756e+41 
1.486897e+02 2.393446e+41 2.195758e+41 
1.541954e+02 2.116336e+41 1.994918e+41 
1.599050e+02 1.884047e+41 1.808451e+41 
1.658260e+02 1.688836e+41 1.645270e+41 
1.719662e+02 1.521436e+41 1.491635e+41 
1.783338e+02 1.392074e+41 1.347954e+41 
1.849372e+02 1.548968e+40 1.221106e+41 
1.917850e+02 0.000000e+00 1.104456e+41 
1.988865e+02 0.000000e+00 9.973952e+40 
2.062509e+02 0.000000e+00 8.988120e+40 
