#NTIMES:           34
#time[d]   Lbol[erg/s]   Edep[erg/s]
1.04929E-01 2.70396E+37   4.665E+43
5.04844E-01 3.09742E+38   4.501E+43
1.01650E+00 1.38357E+40   4.298E+43
2.00917E+00 2.68534E+41   3.931E+43
3.04342E+00 1.48594E+42   3.600E+43
4.08562E+00 3.32660E+42   3.276E+43
5.03061E+00 5.54626E+42   3.009E+43
6.00260E+00 8.05378E+42   2.720E+43
7.08258E+00 1.00693E+43   2.533E+43
8.05457E+00 1.14815E+43   2.295E+43
9.03426E+00 1.23880E+43   2.185E+43
1.00062E+01 1.34586E+43   2.018E+43
1.20582E+01 1.40281E+43   1.713E+43
1.40831E+01 1.43219E+43   1.450E+43
1.60271E+01 1.38995E+43   1.256E+43
1.80587E+01 1.25026E+43   1.094E+43
2.00027E+01 1.12720E+43   9.613E+42
2.20546E+01 9.90832E+42   8.417E+42
2.41065E+01 8.41395E+42   7.428E+42
2.60504E+01 7.41310E+42   6.600E+42
2.81024E+01 6.42688E+42   5.902E+42
3.00463E+01 5.68853E+42   5.342E+42
3.50681E+01 4.58142E+42   4.219E+42
4.00359E+01 3.97192E+42   3.302E+42
5.00795E+01 2.77332E+42   2.333E+42
6.00151E+01 1.72584E+42   1.660E+42
7.00587E+01 1.24165E+42   1.234E+42
8.01023E+01 9.48418E+41   9.129E+41
9.00380E+01 7.41310E+41   7.137E+41
1.00082E+02 5.90201E+41   5.679E+41
1.10017E+02 4.65586E+41   4.589E+41
1.20061E+02 3.81944E+41   3.669E+41
1.30104E+02 3.16957E+41   3.045E+41
1.40040E+02 2.66073E+41   2.554E+41
