#time[d]   Lbol[erg/s]   Edep[erg/s]
#NTIMES:          720
 5.98400E-07 1.16681E+37   4.709E+43
 1.11410E-06 1.27644E+37   4.709E+43
 1.97020E-06 1.45211E+37   4.709E+43
 3.38870E-06 1.73380E+37   4.709E+43
 5.82240E-06 2.17771E+37   4.709E+43
 1.00152E-05 2.85759E+37   4.709E+43
 1.59700E-05 3.66438E+37   4.709E+43
 2.29414E-05 4.44631E+37   4.709E+43
 3.21367E-05 5.33335E+37   4.709E+43
 5.12578E-05 6.56145E+37   4.709E+43
 6.93288E-05 7.21107E+37   4.709E+43
 1.10376E-04 7.76247E+37   4.709E+43
 8.76308E-04 8.74984E+37   4.709E+43
 1.04011E-03 8.60994E+37   4.709E+43
 1.23663E-03 8.41395E+37   4.708E+43
 1.47677E-03 8.12831E+37   4.708E+43
 1.77242E-03 7.79830E+37   4.708E+43
 2.15310E-03 7.46449E+37   4.708E+43
 2.99814E-03 7.12853E+37   4.708E+43
 3.89017E-03 6.96627E+37   4.707E+43
 4.86691E-03 6.87068E+37   4.707E+43
 5.86003E-03 6.80769E+37   4.706E+43
 6.89213E-03 6.79204E+37   4.706E+43
 8.18500E-03 6.80769E+37   4.705E+43
 9.42031E-03 6.82339E+37   4.705E+43
 1.15352E-02 6.88652E+37   4.704E+43
 1.15353E-02 6.88652E+37   4.704E+43
 1.15364E-02 6.88652E+37   4.704E+43
 1.39111E-02 6.99842E+37   4.703E+43
 1.60618E-02 7.07946E+37   4.702E+43
 1.83588E-02 7.17794E+37   4.701E+43
 2.07421E-02 7.26106E+37   4.700E+43
 2.32117E-02 7.34514E+37   4.699E+43
 2.49683E-02 7.41310E+37   4.698E+43
 2.68146E-02 7.48170E+37   4.697E+43
 3.09674E-02 7.55092E+37   4.695E+43
 3.38142E-02 7.56833E+37   4.694E+43
 3.66023E-02 7.58578E+37   4.693E+43
 3.93078E-02 7.58578E+37   4.692E+43
 4.21238E-02 7.56833E+37   4.690E+43
 4.51492E-02 7.48170E+37   4.689E+43
 4.83788E-02 7.39605E+37   4.688E+43
 5.15699E-02 7.24436E+37   4.686E+43
 5.42579E-02 7.07946E+37   4.685E+43
 5.61340E-02 6.91831E+37   4.684E+43
 5.75469E-02 6.77642E+37   4.684E+43
 5.91686E-02 6.60693E+37   4.683E+43
 5.96019E-02 6.54636E+37   4.683E+43
 6.04684E-02 6.45654E+37   4.682E+43
 6.19379E-02 6.26614E+37   4.682E+43
 6.38013E-02 6.03949E+37   4.681E+43
 6.42727E-02 5.98412E+37   4.681E+43
 6.52157E-02 5.87489E+37   4.680E+43
 6.66378E-02 5.72796E+37   4.679E+43
 6.85392E-02 5.54626E+37   4.679E+43
 7.10114E-02 5.33335E+37   4.678E+43
 7.36474E-02 5.16416E+37   4.676E+43
 7.65382E-02 5.00035E+37   4.675E+43
 7.98345E-02 4.84172E+37   4.674E+43
 8.35423E-02 4.66659E+37   4.672E+43
 8.79644E-02 4.47713E+37   4.670E+43
 9.18693E-02 4.28549E+37   4.668E+43
 9.56029E-02 4.08319E+37   4.667E+43
 9.88889E-02 3.88150E+37   4.665E+43
 9.97099E-02 3.82825E+37   4.665E+43
 1.01352E-01 3.72392E+37   4.664E+43
 1.03894E-01 3.55631E+37   4.663E+43
 1.07122E-01 3.34965E+37   4.662E+43
 1.07987E-01 3.29610E+37   4.661E+43
 1.09716E-01 3.18420E+37   4.661E+43
 1.09719E-01 3.18420E+37   4.661E+43
 1.09762E-01 3.17687E+37   4.660E+43
 1.09809E-01 3.17687E+37   4.660E+43
 1.11956E-01 3.04089E+37   4.660E+43
 1.12459E-01 3.01301E+37   4.659E+43
 1.13465E-01 2.94442E+37   4.659E+43
 1.15584E-01 2.81838E+37   4.658E+43
 1.17824E-01 2.68534E+37   4.657E+43
 1.20453E-01 2.52930E+37   4.656E+43
 1.24912E-01 2.25944E+37   4.654E+43
 1.29833E-01 1.96789E+37   4.652E+43
 1.31226E-01 1.51008E+37   4.651E+43
 1.34011E-01 1.35207E+37   4.650E+43
 1.38914E-01 1.10662E+37   4.648E+43
 1.40038E-01 1.05682E+37   4.647E+43
 1.42285E-01 9.70510E+36   4.646E+43
 1.43408E-01 9.28966E+36   4.646E+43
 1.45655E-01 8.55067E+36   4.645E+43
 1.50149E-01 7.24436E+36   4.643E+43
 1.50150E-01 7.24436E+36   4.643E+43
 1.51487E-01 6.91831E+36   4.642E+43
 1.53039E-01 6.56145E+36   4.642E+43
 1.53855E-01 6.38263E+36   4.641E+43
 1.55488E-01 6.05341E+36   4.640E+43
 1.56304E-01 5.88844E+36   4.640E+43
 1.57937E-01 5.59758E+36   4.639E+43
 1.60386E-01 5.18800E+36   4.638E+43
 1.61275E-01 5.04661E+36   4.638E+43
 1.63052E-01 4.79733E+36   4.637E+43
 1.65718E-01 4.43609E+36   4.636E+43
 1.69226E-01 4.02717E+36   4.634E+43
 1.70211E-01 3.92645E+36   4.634E+43
 1.72180E-01 3.72392E+36   4.633E+43
 1.75134E-01 3.45939E+36   4.632E+43
 1.79073E-01 3.16228E+36   4.630E+43
 1.81043E-01 3.00608E+36   4.629E+43
 1.84981E-01 2.72898E+36   4.628E+43
 1.84982E-01 2.72898E+36   4.628E+43
 1.85118E-01 2.07491E+36   4.628E+43
 1.87977E-01 1.90546E+36   4.626E+43
 1.91758E-01 1.66341E+36   4.625E+43
 1.96334E-01 1.42889E+36   4.623E+43
 1.97519E-01 1.37088E+36   4.622E+43
 1.99888E-01 1.26765E+36   4.621E+43
 2.04628E-01 1.11173E+36   4.619E+43
 2.09424E-01 9.84011E+35   4.617E+43
 2.09424E-01 9.84011E+35   4.617E+43
 2.09428E-01 9.84011E+35   4.617E+43
 2.09439E-01 9.84011E+35   4.617E+43
 2.09490E-01 9.84011E+35   4.617E+43
 2.11735E-01 9.26830E+35   4.616E+43
 2.15813E-01 8.41395E+35   4.614E+43
 2.16826E-01 8.22243E+35   4.614E+43
 2.22722E-01 7.21107E+35   4.611E+43
 2.26130E-01 6.72977E+35   4.610E+43
 2.30841E-01 6.08135E+35   4.608E+43
 2.32503E-01 5.87489E+35   4.607E+43
 2.32503E-01 5.87489E+35   4.607E+43
 2.32503E-01 4.10204E+35   4.607E+43
 2.32505E-01 4.09261E+35   4.607E+43
 2.32514E-01 4.08319E+35   4.607E+43
 2.32567E-01 4.09261E+35   4.607E+43
 2.32682E-01 4.10204E+35   4.607E+43
 2.33122E-01 4.07380E+35   4.607E+43
 2.39222E-01 3.41979E+35   4.604E+43
 2.42873E-01 3.06902E+35   4.602E+43
 2.47334E-01 2.70396E+35   4.600E+43
 2.50284E-01 2.50035E+35   4.599E+43
 2.58269E-01 2.08930E+35   4.596E+43
 2.60465E-01 2.01372E+35   4.595E+43
 2.60465E-01 2.01372E+35   4.595E+43
 2.60465E-01 2.01372E+35   4.595E+43
 2.60467E-01 2.01372E+35   4.595E+43
 2.60487E-01 2.01372E+35   4.595E+43
 2.60518E-01 1.65196E+35   4.595E+43
 2.61777E-01 1.61808E+35   4.594E+43
 2.64763E-01 1.55239E+35   4.593E+43
 2.66732E-01 1.52405E+35   4.592E+43
 2.69106E-01 1.50314E+35   4.591E+43
 2.72321E-01 1.49968E+35   4.590E+43
 2.77511E-01 1.60325E+35   4.587E+43
 2.78896E-01 1.65577E+35   4.587E+43
 2.81665E-01 1.80717E+35   4.586E+43
 2.87042E-01 2.31739E+35   4.583E+43
 2.89020E-01 2.59418E+35   4.582E+43
 2.92977E-01 3.33426E+35   4.581E+43
 2.94886E-01 3.79315E+35   4.580E+43
 2.95840E-01 4.04576E+35   4.580E+43
 2.95840E-01 4.04576E+35   4.580E+43
 2.95840E-01 4.04576E+35   4.580E+43
 2.95841E-01 4.04576E+35   4.580E+43
 2.95843E-01 4.04576E+35   4.580E+43
 2.95927E-01 4.07380E+35   4.580E+43
 2.96686E-01 4.28549E+35   4.579E+43
 2.98359E-01 4.84172E+35   4.578E+43
 2.99340E-01 5.18800E+35   4.578E+43
 3.01301E-01 5.95662E+35   4.577E+43
 3.06043E-01 8.20352E+35   4.575E+43
 3.07815E-01 9.09913E+35   4.574E+43
 3.09587E-01 1.00231E+36   4.574E+43
 3.14954E-01 1.30918E+36   4.571E+43
 3.15727E-01 1.30918E+36   4.571E+43
 3.18319E-01 1.46555E+36   4.570E+43
 3.20912E-01 1.62555E+36   4.569E+43
 3.23504E-01 1.79473E+36   4.568E+43
 3.26096E-01 1.96789E+36   4.567E+43
 3.26996E-01 2.02768E+36   4.566E+43
 3.28096E-01 2.10378E+36   4.566E+43
 3.30997E-01 2.31206E+36   4.564E+43
 3.34810E-01 2.60016E+36   4.563E+43
 3.36000E-01 2.69153E+36   4.562E+43
 3.38495E-01 2.89734E+36   4.561E+43
 3.43495E-01 3.34195E+36   4.559E+43
 3.47049E-01 3.68978E+36   4.558E+43
 3.49414E-01 3.93550E+36   4.557E+43
 3.52811E-01 4.31519E+36   4.555E+43
 3.54649E-01 4.52898E+36   4.554E+43
 3.54932E-01 4.57088E+36   4.554E+43
 3.56014E-01 4.69894E+36   4.554E+43
 3.58918E-01 5.09331E+36   4.552E+43
 3.59803E-01 5.21195E+36   4.552E+43
 3.61392E-01 5.43250E+36   4.551E+43
 3.65072E-01 6.02560E+36   4.550E+43
 3.66949E-01 6.33870E+36   4.549E+43
 3.66949E-01 6.33870E+36   4.549E+43
 3.66949E-01 6.33870E+36   4.549E+43
 3.66950E-01 6.33870E+36   4.549E+43
 3.66953E-01 6.33870E+36   4.549E+43
 3.66961E-01 6.35331E+36   4.549E+43
 3.66982E-01 6.35331E+36   4.549E+43
 3.67019E-01 6.35331E+36   4.549E+43
 3.67310E-01 6.41210E+36   4.549E+43
 3.70422E-01 6.99842E+36   4.548E+43
 3.74428E-01 7.88860E+36   4.546E+43
 3.77672E-01 8.66962E+36   4.544E+43
 3.82011E-01 9.95405E+36   4.543E+43
 3.83339E-01 1.03514E+37   4.542E+43
 3.84393E-01 1.06905E+37   4.542E+43
 3.89745E-01 1.27057E+37   4.539E+43
 3.93423E-01 1.42889E+37   4.538E+43
 3.94133E-01 1.45881E+37   4.537E+43
 3.99504E-01 1.73780E+37   4.535E+43
 4.03353E-01 1.95884E+37   4.534E+43
 4.08199E-01 2.27510E+37   4.531E+43
 4.13181E-01 2.63027E+37   4.529E+43
 4.13571E-01 2.66073E+37   4.529E+43
 4.14543E-01 2.72898E+37   4.529E+43
 4.14932E-01 2.76058E+37   4.529E+43
 4.15413E-01 2.79254E+37   4.528E+43
 4.16567E-01 2.87740E+37   4.528E+43
 4.18856E-01 3.05492E+37   4.527E+43
 4.20191E-01 3.16228E+37   4.526E+43
 4.21717E-01 3.28095E+37   4.526E+43
 4.22375E-01 3.33426E+37   4.525E+43
 4.27104E-01 3.71535E+37   4.523E+43
 4.28266E-01 3.81066E+37   4.523E+43
 4.30590E-01 4.00867E+37   4.522E+43
 4.35100E-01 4.39542E+37   4.520E+43
 4.36297E-01 4.50817E+37   4.520E+43
 4.37345E-01 4.59198E+37   4.519E+43
 4.38542E-01 4.69894E+37   4.519E+43
 4.39639E-01 4.79733E+37   4.518E+43
 4.41833E-01 5.00035E+37   4.517E+43
 4.46190E-01 5.42001E+37   4.515E+43
 4.47112E-01 5.52077E+37   4.515E+43
 4.48035E-01 5.61048E+37   4.515E+43
 4.48957E-01 5.70164E+37   4.514E+43
 4.50036E-01 5.82103E+37   4.514E+43
 4.50576E-01 5.87489E+37   4.514E+43
 4.51655E-01 5.99791E+37   4.513E+43
 4.52305E-01 6.06736E+37   4.513E+43
 4.54324E-01 6.29506E+37   4.512E+43
 4.55238E-01 6.39735E+37   4.512E+43
 4.58480E-01 6.80769E+37   4.510E+43
 4.58480E-01 6.80769E+37   4.510E+43
 4.58481E-01 6.80769E+37   4.510E+43
 4.58484E-01 6.80769E+37   4.510E+43
 4.58615E-01 6.82339E+37   4.510E+43
 4.59812E-01 6.98232E+37   4.510E+43
 4.62279E-01 7.31139E+37   4.509E+43
 4.63150E-01 7.43019E+37   4.508E+43
 4.64022E-01 7.56833E+37   4.508E+43
 4.65184E-01 7.72681E+37   4.507E+43
 4.67508E-01 8.09096E+37   4.506E+43
 4.71890E-01 8.83080E+37   4.505E+43
 4.72642E-01 8.95365E+37   4.504E+43
 4.73544E-01 9.09913E+37   4.504E+43
 4.74220E-01 9.22571E+37   4.504E+43
 4.75496E-01 9.46237E+37   4.503E+43
 4.79667E-01 1.02329E+38   4.501E+43
 4.80602E-01 1.04232E+38   4.501E+43
 4.81848E-01 1.06660E+38   4.500E+43
 4.84341E-01 1.11429E+38   4.499E+43
 4.89296E-01 1.21619E+38   4.497E+43
 4.89622E-01 1.22180E+38   4.497E+43
 4.93430E-01 1.30617E+38   4.495E+43
 4.98629E-01 1.42561E+38   4.493E+43
 4.98664E-01 1.42561E+38   4.493E+43
 5.00157E-01 1.45881E+38   4.493E+43
 5.04161E-01 1.55597E+38   4.491E+43
 5.04987E-01 1.57761E+38   4.491E+43
 5.06293E-01 1.61065E+38   4.490E+43
 5.07508E-01 1.64059E+38   4.490E+43
 5.08716E-01 1.67494E+38   4.489E+43
 5.10437E-01 1.71791E+38   4.488E+43
 5.11691E-01 1.75388E+38   4.488E+43
 5.12788E-01 1.78238E+38   4.487E+43
 5.13729E-01 1.81134E+38   4.487E+43
 5.14982E-01 1.84502E+38   4.486E+43
 5.17490E-01 1.91867E+38   4.485E+43
 5.18453E-01 1.94984E+38   4.485E+43
 5.19738E-01 1.98609E+38   4.484E+43
 5.21001E-01 2.02768E+38   4.484E+43
 5.23529E-01 2.10863E+38   4.483E+43
 5.24318E-01 2.13304E+38   4.482E+43
 5.26214E-01 2.19280E+38   4.482E+43
 5.29332E-01 2.29615E+38   4.480E+43
 5.29616E-01 2.30675E+38   4.480E+43
 5.31221E-01 2.36592E+38   4.480E+43
 5.35327E-01 2.51189E+38   4.478E+43
 5.36285E-01 2.54683E+38   4.477E+43
 5.36951E-01 2.57040E+38   4.477E+43
 5.37904E-01 2.60615E+38   4.477E+43
 5.42987E-01 2.78612E+38   4.475E+43
 5.44639E-01 2.85102E+38   4.474E+43
 5.46586E-01 2.92415E+38   4.473E+43
 5.48047E-01 2.97852E+38   4.472E+43
 5.49183E-01 3.02691E+38   4.472E+43
 5.50806E-01 3.09030E+38   4.471E+43
 5.52023E-01 3.14051E+38   4.471E+43
 5.54458E-01 3.24340E+38   4.470E+43
 5.55470E-01 3.28852E+38   4.469E+43
 5.56819E-01 3.34195E+38   4.469E+43
 5.62653E-01 3.60579E+38   4.466E+43
 5.63873E-01 3.66438E+38   4.466E+43
 5.67465E-01 3.83707E+38   4.464E+43
 5.67615E-01 3.84592E+38   4.464E+43
 5.68848E-01 3.90841E+38   4.464E+43
 5.70293E-01 3.98107E+38   4.463E+43
 5.71377E-01 4.03645E+38   4.463E+43
 5.73063E-01 4.12098E+38   4.462E+43
 5.78506E-01 4.41570E+38   4.460E+43
 5.79551E-01 4.47713E+38   4.459E+43
 5.80178E-01 4.52898E+38   4.459E+43
 5.84356E-01 4.76431E+38   4.457E+43
 5.85740E-01 4.84172E+38   4.457E+43
 5.87815E-01 4.96592E+38   4.456E+43
 5.90580E-01 5.14044E+38   4.455E+43
 5.91796E-01 5.21195E+38   4.454E+43
 5.93417E-01 5.32108E+38   4.454E+43
 5.95126E-01 5.43250E+38   4.453E+43
 5.98545E-01 5.66239E+38   4.451E+43
 5.99827E-01 5.75440E+38   4.451E+43
 6.01536E-01 5.87489E+38   4.450E+43
 6.02444E-01 5.92925E+38   4.450E+43
 6.03488E-01 6.01174E+38   4.449E+43
 6.05703E-01 6.18016E+38   4.448E+43
 6.07168E-01 6.28058E+38   4.448E+43
 6.09365E-01 6.45654E+38   4.447E+43
 6.15318E-01 6.93426E+38   4.444E+43
 6.16403E-01 7.03072E+38   4.444E+43
 6.19008E-01 7.24436E+38   4.443E+43
 6.25360E-01 7.81628E+38   4.440E+43
 6.27467E-01 8.01678E+38   4.439E+43
 6.31998E-01 8.45279E+38   4.438E+43
 6.33367E-01 8.59014E+38   4.437E+43
 6.35192E-01 8.77001E+38   4.436E+43
 6.38843E-01 9.14113E+38   4.435E+43
 6.46068E-01 9.88553E+38   4.432E+43
 6.47296E-01 1.00231E+39   4.431E+43
 6.48733E-01 1.01859E+39   4.431E+43
 6.50440E-01 1.03514E+39   4.430E+43
 6.51727E-01 1.05439E+39   4.429E+43
 6.53657E-01 1.07647E+39   4.429E+43
 6.58336E-01 1.12720E+39   4.427E+43
 6.59603E-01 1.14025E+39   4.426E+43
 6.61454E-01 1.16145E+39   4.425E+43
 6.64856E-01 1.19950E+39   4.424E+43
 6.69391E-01 1.25026E+39   4.422E+43
 6.70636E-01 1.26474E+39   4.422E+43
 6.72750E-01 1.28825E+39   4.421E+43
 6.74136E-01 1.30317E+39   4.420E+43
 6.76908E-01 1.33660E+39   4.419E+43
 6.79178E-01 1.36144E+39   4.418E+43
 6.81034E-01 1.38357E+39   4.417E+43
 6.83088E-01 1.40929E+39   4.416E+43
 6.90788E-01 1.49968E+39   4.413E+43
 6.92229E-01 1.51705E+39   4.413E+43
 6.95687E-01 1.55955E+39   4.411E+43
 6.96988E-01 1.57398E+39   4.411E+43
 6.99591E-01 1.60694E+39   4.410E+43
 7.05050E-01 1.67494E+39   4.407E+43
 7.14008E-01 1.79061E+39   4.404E+43
 7.14939E-01 1.80302E+39   4.403E+43
 7.16623E-01 1.82810E+39   4.403E+43
 7.18771E-01 1.85780E+39   4.402E+43
 7.21688E-01 1.89671E+39   4.401E+43
 7.23156E-01 1.91426E+39   4.400E+43
 7.32127E-01 2.02768E+39   4.396E+43
 7.35217E-01 2.06538E+39   4.395E+43
 7.37424E-01 2.09894E+39   4.394E+43
 7.40548E-01 2.13796E+39   4.393E+43
 7.44436E-01 2.19280E+39   4.391E+43
 7.47792E-01 2.23872E+39   4.390E+43
 7.52422E-01 2.30144E+39   4.388E+43
 7.55089E-01 2.33884E+39   4.387E+43
 7.59960E-01 2.40991E+39   4.385E+43
 7.64203E-01 2.46604E+39   4.383E+43
 7.66657E-01 2.50611E+39   4.382E+43
 7.70473E-01 2.55859E+39   4.381E+43
 7.75277E-01 2.63027E+39   4.379E+43
 7.76779E-01 2.64850E+39   4.378E+43
 7.78544E-01 2.67917E+39   4.377E+43
 7.81119E-01 2.71644E+39   4.376E+43
 7.84379E-01 2.76694E+39   4.375E+43
 7.88105E-01 2.81838E+39   4.373E+43
 7.89995E-01 2.84446E+39   4.373E+43
 7.92630E-01 2.87740E+39   4.372E+43
 7.97900E-01 2.95801E+39   4.369E+43
 8.03170E-01 3.02691E+39   4.367E+43
 8.05324E-01 3.05492E+39   4.366E+43
 8.09509E-01 3.11172E+39   4.365E+43
 8.11601E-01 3.14051E+39   4.364E+43
 8.16622E-01 3.20627E+39   4.362E+43
 8.20169E-01 3.25837E+39   4.360E+43
 8.23607E-01 3.30370E+39   4.359E+43
 8.28763E-01 3.38065E+39   4.357E+43
 8.31771E-01 3.41979E+39   4.356E+43
 8.37542E-01 3.50752E+39   4.353E+43
 8.41615E-01 3.57273E+39   4.352E+43
 8.45879E-01 3.63915E+39   4.350E+43
 8.48305E-01 3.67282E+39   4.349E+43
 8.51288E-01 3.72392E+39   4.348E+43
 8.55551E-01 3.78443E+39   4.346E+43
 8.58596E-01 3.83707E+39   4.345E+43
 8.62859E-01 3.90841E+39   4.343E+43
 8.65904E-01 3.95367E+39   4.342E+43
 8.70168E-01 4.02717E+39   4.340E+43
 8.72760E-01 4.06443E+39   4.339E+43
 8.80310E-01 4.18794E+39   4.336E+43
 8.84042E-01 4.24620E+39   4.335E+43
 8.88874E-01 4.32514E+39   4.333E+43
 8.94394E-01 4.40555E+39   4.330E+43
 8.99033E-01 4.48745E+39   4.328E+43
 9.05722E-01 4.59198E+39   4.326E+43
 9.09546E-01 4.64515E+39   4.324E+43
 9.14826E-01 4.73151E+39   4.322E+43
 9.15115E-01 4.74242E+39   4.322E+43
 9.21080E-01 4.81948E+39   4.320E+43
 9.25051E-01 4.85289E+39   4.318E+43
 9.28466E-01 4.88652E+39   4.317E+43
 9.31958E-01 4.94311E+39   4.315E+43
 9.36579E-01 5.01187E+39   4.313E+43
 9.43718E-01 5.12861E+39   4.311E+43
 9.47287E-01 5.18800E+39   4.309E+43
 9.51551E-01 5.26017E+39   4.307E+43
 9.59547E-01 5.40754E+39   4.304E+43
 9.64343E-01 5.48277E+39   4.302E+43
 9.71109E-01 5.61048E+39   4.300E+43
 9.76573E-01 5.71479E+39   4.297E+43
 9.84019E-01 5.86138E+39   4.294E+43
 9.90057E-01 5.97035E+39   4.292E+43
 9.96069E-01 6.08135E+39   4.290E+43
 9.99564E-01 6.15177E+39   4.288E+43
 1.00825E+00 6.29506E+39   4.285E+43
 1.01246E+00 6.36796E+39   4.283E+43
 1.01947E+00 6.50130E+39   4.280E+43
 1.02754E+00 6.65273E+39   4.277E+43
 1.03598E+00 6.80769E+39   4.274E+43
 1.03969E+00 6.87068E+39   4.272E+43
 1.04625E+00 7.01455E+39   4.270E+43
 1.05396E+00 7.19449E+39   4.267E+43
 1.05986E+00 7.32825E+39   4.264E+43
 1.06633E+00 7.49894E+39   4.262E+43
 1.06962E+00 7.58578E+39   4.261E+43
 1.07394E+00 7.70903E+39   4.259E+43
 1.07790E+00 7.81628E+39   4.257E+43
 1.08222E+00 7.94328E+39   4.256E+43
 1.08677E+00 8.07235E+39   4.254E+43
 1.09038E+00 8.20352E+39   4.252E+43
 1.09307E+00 8.27942E+39   4.251E+43
 1.09721E+00 8.43335E+39   4.250E+43
 1.10153E+00 8.57038E+39   4.248E+43
 1.10477E+00 8.68960E+39   4.247E+43
 1.10845E+00 8.83080E+39   4.245E+43
 1.11626E+00 9.12011E+39   4.242E+43
 1.11984E+00 9.24698E+39   4.241E+43
 1.12360E+00 9.39723E+39   4.239E+43
 1.12850E+00 9.59401E+39   4.237E+43
 1.13187E+00 9.72747E+39   4.236E+43
 1.13558E+00 9.88553E+39   4.235E+43
 1.14055E+00 1.00925E+40   4.233E+43
 1.14397E+00 1.02329E+40   4.231E+43
 1.14780E+00 1.03753E+40   4.230E+43
 1.15299E+00 1.06170E+40   4.228E+43
 1.15656E+00 1.07647E+40   4.226E+43
 1.16051E+00 1.09144E+40   4.225E+43
 1.16317E+00 1.10408E+40   4.224E+43
 1.16690E+00 1.11944E+40   4.222E+43
 1.17021E+00 1.13501E+40   4.221E+43
 1.17519E+00 1.15611E+40   4.219E+43
 1.17809E+00 1.16950E+40   4.218E+43
 1.18209E+00 1.18577E+40   4.216E+43
 1.18555E+00 1.20226E+40   4.215E+43
 1.18836E+00 1.21339E+40   4.214E+43
 1.19274E+00 1.23027E+40   4.212E+43
 1.19577E+00 1.24451E+40   4.211E+43
 1.19952E+00 1.26183E+40   4.210E+43
 1.20422E+00 1.28233E+40   4.208E+43
 1.20861E+00 1.30317E+40   4.206E+43
 1.21153E+00 1.31522E+40   4.205E+43
 1.21523E+00 1.33352E+40   4.204E+43
 1.21820E+00 1.34586E+40   4.202E+43
 1.22194E+00 1.36144E+40   4.201E+43
 1.22494E+00 1.37721E+40   4.200E+43
 1.22868E+00 1.39316E+40   4.198E+43
 1.23166E+00 1.40929E+40   4.197E+43
 1.23542E+00 1.42561E+40   4.196E+43
 1.23845E+00 1.44212E+40   4.195E+43
 1.24223E+00 1.45881E+40   4.193E+43
 1.24753E+00 1.48594E+40   4.191E+43
 1.25131E+00 1.50314E+40   4.190E+43
 1.25678E+00 1.53109E+40   4.187E+43
 1.26127E+00 1.55597E+40   4.186E+43
 1.26540E+00 1.57761E+40   4.184E+43
 1.27098E+00 1.60694E+40   4.182E+43
 1.27484E+00 1.62930E+40   4.180E+43
 1.27948E+00 1.65196E+40   4.179E+43
 1.28413E+00 1.67880E+40   4.177E+43
 1.28947E+00 1.71002E+40   4.175E+43
 1.29610E+00 1.74582E+40   4.172E+43
 1.30016E+00 1.77419E+40   4.171E+43
 1.30503E+00 1.79887E+40   4.169E+43
 1.30991E+00 1.82810E+40   4.167E+43
 1.31623E+00 1.86638E+40   4.165E+43
 1.32423E+00 1.91426E+40   4.161E+43
 1.32932E+00 1.94536E+40   4.160E+43
 1.33448E+00 1.97697E+40   4.158E+43
 1.34153E+00 2.02302E+40   4.155E+43
 1.34694E+00 2.05589E+40   4.153E+43
 1.35249E+00 2.08930E+40   4.151E+43
 1.35992E+00 2.13796E+40   4.148E+43
 1.36554E+00 2.17771E+40   4.146E+43
 1.37121E+00 2.21309E+40   4.144E+43
 1.37880E+00 2.26464E+40   4.141E+43
 1.38451E+00 2.30144E+40   4.138E+43
 1.39031E+00 2.34423E+40   4.136E+43
 1.39813E+00 2.40436E+40   4.133E+43
 1.40405E+00 2.44906E+40   4.131E+43
 1.41002E+00 2.48886E+40   4.129E+43
 1.41795E+00 2.55270E+40   4.126E+43
 1.42385E+00 2.60016E+40   4.124E+43
 1.43004E+00 2.65461E+40   4.121E+43
 1.43832E+00 2.72898E+40   4.118E+43
 1.44456E+00 2.77971E+40   4.116E+43
 1.45087E+00 2.83792E+40   4.113E+43
 1.45933E+00 2.91743E+40   4.110E+43
 1.46569E+00 2.97852E+40   4.108E+43
 1.47211E+00 3.04089E+40   4.105E+43
 1.48074E+00 3.12608E+40   4.102E+43
 1.48727E+00 3.19154E+40   4.100E+43
 1.50025E+00 3.32660E+40   4.095E+43
 1.50674E+00 3.39625E+40   4.092E+43
 1.51107E+00 3.45144E+40   4.091E+43
 1.51972E+00 3.54813E+40   4.086E+43
 1.53345E+00 3.69828E+40   4.081E+43
 1.54030E+00 3.77572E+40   4.078E+43
 1.55401E+00 3.94457E+40   4.073E+43
