#NTIMES: 145 
#TIMES[d]: 4.14 4.22 4.31 4.40 4.49 4.58 4.68 4.77 4.87 4.97 5.08 5.18 5.29 5.40 5.51 5.62 5.74 5.86 5.98 6.10 6.23 6.36 6.49 6.62 6.76 6.90 7.04 7.19 7.34 7.49 7.64 7.80 7.96 8.13 8.30 8.47 8.64 8.82 9.01 9.19 9.38 9.58 9.77 9.98 10.18 10.39 10.61 10.83 11.05 11.28 11.51 11.75 11.99 12.24 12.50 12.75 13.02 13.29 13.56 13.84 14.13 14.42 14.72 15.02 15.33 15.65 15.98 16.31 16.64 16.99 17.34 17.70 18.06 18.44 18.82 19.21 19.60 20.01 20.42 20.85 21.28 21.72 22.17 22.62 23.09 23.57 24.06 24.56 25.06 25.58 26.11 26.65 27.20 27.76 28.34 28.93 29.52 30.13 30.76 31.39 32.04 32.71 33.38 34.07 34.78 35.50 36.23 36.98 37.74 38.53 39.32 40.14 40.97 41.81 42.68 43.56 44.46 45.38 46.32 47.28 48.26 49.25 50.27 51.31 52.37 53.46 54.56 55.69 56.84 58.02 59.22 60.44 61.69 62.97 64.27 65.60 66.96 68.34 69.76 71.20 72.67 74.17 75.71 77.27 78.87 
#
#TIME: 4.14 
#NVEL: 81 
#vel_mid[km/s] temp[K] rho[gcc] ne[/cm^3] natom[/cm^3] 
250.00 1.40e+05 6.28e-11 2.49e+12 6.01e+11 
750.00 1.40e+05 5.42e-11 2.16e+12 5.18e+11 
1250.00 1.40e+05 4.59e-11 1.83e+12 4.39e+11 
1750.00 1.40e+05 3.88e-11 1.54e+12 3.71e+11 
2250.00 1.37e+05 3.27e-11 1.29e+12 3.13e+11 
2750.00 1.26e+05 2.75e-11 1.07e+12 2.63e+11 
3250.00 1.16e+05 2.32e-11 8.95e+11 2.22e+11 
3750.00 1.06e+05 1.95e-11 7.49e+11 1.87e+11 
4250.00 9.71e+04 1.64e-11 6.26e+11 1.57e+11 
4750.00 8.92e+04 1.38e-11 5.25e+11 1.32e+11 
5250.00 8.20e+04 1.16e-11 4.40e+11 1.11e+11 
5750.00 7.55e+04 9.79e-12 3.68e+11 9.36e+10 
6250.00 6.95e+04 8.24e-12 3.06e+11 7.88e+10 
6750.00 4.86e+04 6.93e-12 2.75e+11 6.66e+10 
7250.00 4.37e+04 5.83e-12 2.38e+11 5.85e+10 
7750.00 3.95e+04 4.91e-12 2.15e+11 5.36e+10 
8250.00 3.61e+04 4.13e-12 1.99e+11 5.00e+10 
8750.00 3.54e+04 3.48e-12 1.83e+11 4.66e+10 
9250.00 3.53e+04 2.93e-12 1.65e+11 4.30e+10 
9750.00 3.26e+04 2.46e-12 1.47e+11 3.91e+10 
10250.00 2.78e+04 2.07e-12 1.27e+11 3.49e+10 
10750.00 2.33e+04 1.74e-12 1.02e+11 3.07e+10 
11250.00 2.03e+04 1.47e-12 7.79e+10 2.66e+10 
11750.00 1.85e+04 1.23e-12 6.02e+10 2.27e+10 
12250.00 1.67e+04 1.04e-12 4.54e+10 1.92e+10 
12750.00 1.51e+04 8.73e-13 3.33e+10 1.62e+10 
13250.00 1.42e+04 7.35e-13 2.64e+10 1.36e+10 
13750.00 1.32e+04 6.18e-13 2.10e+10 1.15e+10 
14250.00 1.22e+04 5.20e-13 1.68e+10 9.65e+09 
14750.00 1.12e+04 4.38e-13 1.38e+10 8.12e+09 
15250.00 1.05e+04 3.68e-13 1.15e+10 6.83e+09 
15750.00 9.81e+03 3.10e-13 9.59e+09 5.75e+09 
16250.00 9.40e+03 2.61e-13 8.04e+09 4.83e+09 
16750.00 8.86e+03 2.19e-13 6.73e+09 4.07e+09 
17250.00 8.52e+03 1.85e-13 5.60e+09 3.42e+09 
17750.00 8.03e+03 1.55e-13 4.62e+09 2.88e+09 
18250.00 7.91e+03 1.31e-13 3.79e+09 2.42e+09 
18750.00 7.47e+03 1.10e-13 3.07e+09 2.04e+09 
19250.00 7.27e+03 9.25e-14 2.42e+09 1.72e+09 
19750.00 6.85e+03 7.78e-14 1.90e+09 1.44e+09 
20250.00 6.86e+03 6.55e-14 1.53e+09 1.21e+09 
20750.00 6.35e+03 5.51e-14 1.22e+09 1.02e+09 
21250.00 5.77e+03 4.64e-14 9.99e+08 8.60e+08 
21750.00 6.98e+03 3.90e-14 8.18e+08 7.23e+08 
22250.00 7.47e+03 3.28e-14 6.78e+08 6.09e+08 
22750.00 6.94e+03 2.76e-14 5.62e+08 5.12e+08 
23250.00 5.91e+03 2.32e-14 4.70e+08 4.31e+08 
23750.00 6.84e+03 1.95e-14 3.94e+08 3.62e+08 
24250.00 5.84e+03 1.64e-14 3.31e+08 3.05e+08 
24750.00 4.70e+03 1.38e-14 2.77e+08 2.57e+08 
25250.00 4.68e+03 1.16e-14 2.33e+08 2.16e+08 
25750.00 4.04e+03 9.80e-15 1.96e+08 1.82e+08 
26250.00 4.00e+03 8.24e-15 1.65e+08 1.53e+08 
26750.00 5.08e+03 6.94e-15 1.38e+08 1.29e+08 
27250.00 4.12e+03 5.84e-15 1.16e+08 1.08e+08 
27750.00 8.27e+03 4.91e-15 9.80e+07 9.10e+07 
28250.00 5.53e+03 4.13e-15 8.24e+07 7.66e+07 
28750.00 5.35e+03 3.48e-15 6.93e+07 6.44e+07 
29250.00 5.19e+03 2.92e-15 5.83e+07 5.42e+07 
29750.00 4.76e+03 2.46e-15 4.91e+07 4.56e+07 
30250.00 5.40e+03 2.07e-15 4.13e+07 3.84e+07 
30750.00 4.62e+03 1.74e-15 3.47e+07 3.23e+07 
31250.00 7.30e+03 1.47e-15 2.92e+07 2.72e+07 
31750.00 4.07e+03 1.23e-15 2.45e+07 2.29e+07 
32250.00 4.21e+03 1.04e-15 2.06e+07 1.92e+07 
32750.00 7.00e+03 8.73e-16 1.74e+07 1.62e+07 
33250.00 3.82e+03 7.34e-16 1.46e+07 1.36e+07 
33750.00 3.63e+03 6.18e-16 1.23e+07 1.15e+07 
34250.00 3.50e+03 5.20e-16 1.03e+07 9.64e+06 
34750.00 3.50e+03 4.37e-16 8.63e+06 8.11e+06 
35250.00 3.60e+03 3.68e-16 7.24e+06 6.82e+06 
35750.00 3.50e+03 3.10e-16 6.14e+06 5.74e+06 
36250.00 3.50e+03 2.61e-16 5.18e+06 4.83e+06 
36750.00 3.50e+03 2.19e-16 4.35e+06 4.06e+06 
37250.00 3.97e+03 1.84e-16 3.66e+06 3.42e+06 
37750.00 3.50e+03 1.55e-16 3.06e+06 2.88e+06 
38250.00 4.61e+03 1.31e-16 2.60e+06 2.42e+06 
38750.00 3.56e+03 1.10e-16 2.18e+06 2.04e+06 
39250.00 4.96e+03 9.24e-17 1.84e+06 1.71e+06 
39750.00 3.50e+03 7.78e-17 1.53e+06 1.44e+06 
40250.00 3.50e+03 6.54e-17 1.29e+06 1.21e+06 
#TIME: 4.22 
#NVEL: 81 
#vel_mid[km/s] temp[K] rho[gcc] ne[/cm^3] natom[/cm^3] 
250.00 1.40e+05 5.91e-11 2.33e+12 5.65e+11 
750.00 1.40e+05 5.10e-11 2.02e+12 4.87e+11 
1250.00 1.40e+05 4.32e-11 1.72e+12 4.13e+11 
1750.00 1.40e+05 3.65e-11 1.45e+12 3.49e+11 
2250.00 1.36e+05 3.07e-11 1.21e+12 2.94e+11 
2750.00 1.25e+05 2.59e-11 1.01e+12 2.48e+11 
3250.00 1.15e+05 2.18e-11 8.41e+11 2.08e+11 
3750.00 1.06e+05 1.84e-11 7.03e+11 1.75e+11 
4250.00 9.74e+04 1.54e-11 5.88e+11 1.48e+11 
4750.00 8.95e+04 1.30e-11 4.93e+11 1.24e+11 
5250.00 8.25e+04 1.09e-11 4.13e+11 1.05e+11 
5750.00 7.60e+04 9.21e-12 3.45e+11 8.81e+10 
6250.00 7.01e+04 7.75e-12 2.86e+11 7.41e+10 
6750.00 4.73e+04 6.52e-12 2.58e+11 6.26e+10 
7250.00 4.28e+04 5.49e-12 2.23e+11 5.50e+10 
7750.00 3.87e+04 4.62e-12 2.02e+11 5.04e+10 
8250.00 3.60e+04 3.89e-12 1.87e+11 4.70e+10 
8750.00 3.57e+04 3.27e-12 1.71e+11 4.38e+10 
9250.00 3.50e+04 2.75e-12 1.54e+11 4.05e+10 
9750.00 3.20e+04 2.31e-12 1.37e+11 3.68e+10 
10250.00 2.71e+04 1.95e-12 1.18e+11 3.28e+10 
10750.00 2.31e+04 1.64e-12 9.45e+10 2.89e+10 
11250.00 2.01e+04 1.38e-12 7.26e+10 2.50e+10 
11750.00 1.82e+04 1.16e-12 5.60e+10 2.14e+10 
12250.00 1.63e+04 9.76e-13 4.15e+10 1.81e+10 
12750.00 1.49e+04 8.21e-13 3.07e+10 1.52e+10 
13250.00 1.39e+04 6.91e-13 2.45e+10 1.28e+10 
13750.00 1.30e+04 5.82e-13 1.95e+10 1.08e+10 
14250.00 1.20e+04 4.89e-13 1.57e+10 9.07e+09 
14750.00 1.11e+04 4.12e-13 1.29e+10 7.63e+09 
15250.00 1.04e+04 3.46e-13 1.08e+10 6.42e+09 
15750.00 9.72e+03 2.91e-13 9.01e+09 5.40e+09 
16250.00 9.28e+03 2.45e-13 7.56e+09 4.55e+09 
16750.00 8.86e+03 2.06e-13 6.32e+09 3.83e+09 
17250.00 8.56e+03 1.74e-13 5.26e+09 3.22e+09 
17750.00 8.31e+03 1.46e-13 4.34e+09 2.71e+09 
18250.00 7.71e+03 1.23e-13 3.52e+09 2.28e+09 
18750.00 7.79e+03 1.03e-13 2.85e+09 1.92e+09 
19250.00 7.16e+03 8.70e-14 2.25e+09 1.61e+09 
19750.00 6.85e+03 7.32e-14 1.79e+09 1.36e+09 
20250.00 7.04e+03 6.16e-14 1.42e+09 1.14e+09 
20750.00 6.73e+03 5.18e-14 1.14e+09 9.61e+08 
21250.00 6.53e+03 4.36e-14 9.28e+08 8.08e+08 
21750.00 6.00e+03 3.67e-14 8.08e+08 6.80e+08 
22250.00 5.53e+03 3.09e-14 6.40e+08 5.72e+08 
22750.00 5.79e+03 2.60e-14 5.27e+08 4.82e+08 
23250.00 6.58e+03 2.19e-14 4.42e+08 4.05e+08 
23750.00 6.90e+03 1.84e-14 3.70e+08 3.41e+08 
24250.00 7.51e+03 1.55e-14 3.11e+08 2.87e+08 
24750.00 6.72e+03 1.30e-14 2.61e+08 2.41e+08 
25250.00 7.20e+03 1.10e-14 2.29e+08 2.03e+08 
25750.00 4.37e+03 9.21e-15 1.84e+08 1.71e+08 
26250.00 4.41e+03 7.75e-15 1.55e+08 1.44e+08 
26750.00 4.42e+03 6.52e-15 1.30e+08 1.21e+08 
27250.00 4.29e+03 5.49e-15 1.10e+08 1.02e+08 
27750.00 4.92e+03 4.62e-15 9.22e+07 8.56e+07 
28250.00 6.12e+03 3.88e-15 7.75e+07 7.20e+07 
28750.00 5.03e+03 3.27e-15 6.52e+07 6.06e+07 
29250.00 4.17e+03 2.75e-15 5.48e+07 5.10e+07 
29750.00 4.67e+03 2.31e-15 4.61e+07 4.29e+07 
30250.00 3.87e+03 1.95e-15 3.88e+07 3.61e+07 
30750.00 3.96e+03 1.64e-15 3.26e+07 3.04e+07 
31250.00 4.15e+03 1.38e-15 2.74e+07 2.56e+07 
31750.00 3.82e+03 1.16e-15 2.31e+07 2.15e+07 
32250.00 3.66e+03 9.76e-16 1.94e+07 1.81e+07 
32750.00 3.57e+03 8.21e-16 1.63e+07 1.52e+07 
33250.00 5.01e+03 6.91e-16 1.38e+07 1.28e+07 
33750.00 3.50e+03 5.81e-16 1.15e+07 1.08e+07 
34250.00 3.50e+03 4.89e-16 9.71e+06 9.06e+06 
34750.00 4.42e+03 4.11e-16 8.20e+06 7.63e+06 
35250.00 3.82e+03 3.46e-16 6.83e+06 6.42e+06 
35750.00 3.50e+03 2.91e-16 5.75e+06 5.40e+06 
36250.00 3.50e+03 2.45e-16 4.87e+06 4.54e+06 
36750.00 3.50e+03 2.06e-16 4.09e+06 3.82e+06 
37250.00 3.50e+03 1.73e-16 3.43e+06 3.22e+06 
37750.00 3.50e+03 1.46e-16 2.89e+06 2.71e+06 
38250.00 3.50e+03 1.23e-16 2.43e+06 2.28e+06 
38750.00 3.50e+03 1.03e-16 2.05e+06 1.92e+06 
39250.00 3.50e+03 8.69e-17 1.72e+06 1.61e+06 
39750.00 3.50e+03 7.31e-17 1.45e+06 1.36e+06 
40250.00 3.50e+03 6.15e-17 1.21e+06 1.14e+06 
#TIME: 4.31 
#NVEL: 81 
#vel_mid[km/s] temp[K] rho[gcc] ne[/cm^3] natom[/cm^3] 
250.00 1.40e+05 5.56e-11 2.19e+12 5.31e+11 
750.00 1.40e+05 4.79e-11 1.90e+12 4.58e+11 
1250.00 1.40e+05 4.06e-11 1.61e+12 3.88e+11 
1750.00 1.40e+05 3.43e-11 1.36e+12 3.28e+11 
2250.00 1.33e+05 2.89e-11 1.14e+12 2.76e+11 
2750.00 1.22e+05 2.43e-11 9.46e+11 2.33e+11 
3250.00 1.13e+05 2.05e-11 7.90e+11 1.96e+11 
3750.00 1.04e+05 1.73e-11 6.61e+11 1.65e+11 
4250.00 9.62e+04 1.45e-11 5.53e+11 1.39e+11 
4750.00 8.86e+04 1.22e-11 4.63e+11 1.17e+11 
5250.00 8.17e+04 1.03e-11 3.88e+11 9.84e+10 
5750.00 7.55e+04 8.66e-12 3.24e+11 8.28e+10 
6250.00 6.98e+04 7.29e-12 2.69e+11 6.97e+10 
6750.00 4.63e+04 6.13e-12 2.42e+11 5.89e+10 
7250.00 4.19e+04 5.16e-12 2.10e+11 5.18e+10 
7750.00 3.80e+04 4.34e-12 1.90e+11 4.74e+10 
8250.00 3.57e+04 3.65e-12 1.75e+11 4.42e+10 
8750.00 3.54e+04 3.07e-12 1.61e+11 4.12e+10 
9250.00 3.46e+04 2.59e-12 1.44e+11 3.81e+10 
9750.00 3.13e+04 2.18e-12 1.29e+11 3.46e+10 
10250.00 2.63e+04 1.83e-12 1.10e+11 3.09e+10 
10750.00 2.24e+04 1.54e-12 8.73e+10 2.71e+10 
11250.00 1.99e+04 1.30e-12 6.76e+10 2.35e+10 
11750.00 1.78e+04 1.09e-12 5.21e+10 2.01e+10 
12250.00 1.61e+04 9.18e-13 3.81e+10 1.70e+10 
12750.00 1.48e+04 7.73e-13 2.86e+10 1.43e+10 
13250.00 1.37e+04 6.50e-13 2.28e+10 1.21e+10 
13750.00 1.28e+04 5.47e-13 1.81e+10 1.01e+10 
14250.00 1.16e+04 4.60e-13 1.46e+10 8.53e+09 
14750.00 1.09e+04 3.87e-13 1.21e+10 7.18e+09 
15250.00 1.02e+04 3.26e-13 1.01e+10 6.04e+09 
15750.00 9.54e+03 2.74e-13 8.47e+09 5.08e+09 
16250.00 9.08e+03 2.31e-13 7.10e+09 4.28e+09 
16750.00 8.87e+03 1.94e-13 5.93e+09 3.60e+09 
17250.00 8.13e+03 1.63e-13 4.92e+09 3.03e+09 
17750.00 8.09e+03 1.37e-13 4.04e+09 2.55e+09 
18250.00 7.47e+03 1.16e-13 3.28e+09 2.14e+09 
18750.00 7.51e+03 9.72e-14 2.63e+09 1.80e+09 
19250.00 7.32e+03 8.18e-14 2.10e+09 1.52e+09 
19750.00 7.23e+03 6.88e-14 1.67e+09 1.28e+09 
20250.00 6.92e+03 5.79e-14 1.32e+09 1.07e+09 
20750.00 7.13e+03 4.87e-14 1.12e+09 9.04e+08 
21250.00 6.42e+03 4.10e-14 9.04e+08 7.60e+08 
21750.00 6.24e+03 3.45e-14 7.27e+08 6.40e+08 
22250.00 7.24e+03 2.90e-14 5.97e+08 5.38e+08 
22750.00 4.80e+03 2.44e-14 4.95e+08 4.53e+08 
23250.00 6.57e+03 2.05e-14 4.15e+08 3.81e+08 
23750.00 5.23e+03 1.73e-14 3.48e+08 3.21e+08 
24250.00 5.24e+03 1.45e-14 2.92e+08 2.70e+08 
24750.00 7.68e+03 1.22e-14 2.52e+08 2.27e+08 
25250.00 5.26e+03 1.03e-14 2.06e+08 1.91e+08 
25750.00 5.14e+03 8.66e-15 1.73e+08 1.61e+08 
26250.00 5.33e+03 7.29e-15 1.46e+08 1.35e+08 
26750.00 5.07e+03 6.13e-15 1.22e+08 1.14e+08 
27250.00 5.70e+03 5.16e-15 1.03e+08 9.57e+07 
27750.00 4.66e+03 4.34e-15 8.66e+07 8.05e+07 
28250.00 4.70e+03 3.65e-15 7.28e+07 6.77e+07 
28750.00 4.65e+03 3.07e-15 6.13e+07 5.70e+07 
29250.00 4.51e+03 2.59e-15 5.16e+07 4.80e+07 
29750.00 5.94e+03 2.18e-15 4.34e+07 4.03e+07 
30250.00 4.43e+03 1.83e-15 3.65e+07 3.39e+07 
30750.00 4.22e+03 1.54e-15 3.07e+07 2.86e+07 
31250.00 4.58e+03 1.30e-15 2.58e+07 2.40e+07 
31750.00 3.87e+03 1.09e-15 2.17e+07 2.02e+07 
32250.00 3.70e+03 9.18e-16 1.83e+07 1.70e+07 
32750.00 3.72e+03 7.72e-16 1.54e+07 1.43e+07 
33250.00 3.97e+03 6.50e-16 1.29e+07 1.20e+07 
33750.00 3.74e+03 5.46e-16 1.09e+07 1.01e+07 
34250.00 4.35e+03 4.60e-16 9.16e+06 8.52e+06 
34750.00 4.24e+03 3.87e-16 7.69e+06 7.17e+06 
35250.00 5.46e+03 3.25e-16 6.49e+06 6.03e+06 
35750.00 3.50e+03 2.74e-16 5.39e+06 5.08e+06 
36250.00 3.60e+03 2.30e-16 4.55e+06 4.27e+06 
36750.00 3.50e+03 1.94e-16 3.80e+06 3.59e+06 
37250.00 3.50e+03 1.63e-16 3.17e+06 3.02e+06 
37750.00 3.50e+03 1.37e-16 2.64e+06 2.54e+06 
38250.00 3.50e+03 1.15e-16 2.22e+06 2.14e+06 
38750.00 3.50e+03 9.72e-17 1.86e+06 1.80e+06 
39250.00 3.50e+03 8.17e-17 1.56e+06 1.52e+06 
39750.00 3.50e+03 6.88e-17 1.36e+06 1.28e+06 
40250.00 3.50e+03 5.79e-17 1.14e+06 1.07e+06 
#TIME: 4.40 
#NVEL: 81 
#vel_mid[km/s] temp[K] rho[gcc] ne[/cm^3] natom[/cm^3] 
250.00 1.40e+05 5.22e-11 2.06e+12 5.00e+11 
750.00 1.40e+05 4.51e-11 1.78e+12 4.31e+11 
1250.00 1.40e+05 3.82e-11 1.52e+12 3.65e+11 
1750.00 1.40e+05 3.22e-11 1.28e+12 3.08e+11 
2250.00 1.30e+05 2.72e-11 1.07e+12 2.60e+11 
2750.00 1.20e+05 2.29e-11 8.89e+11 2.19e+11 
3250.00 1.11e+05 1.93e-11 7.42e+11 1.84e+11 
3750.00 1.02e+05 1.62e-11 6.21e+11 1.55e+11 
4250.00 9.41e+04 1.37e-11 5.20e+11 1.31e+11 
4750.00 8.70e+04 1.15e-11 4.35e+11 1.10e+11 
5250.00 8.04e+04 9.68e-12 3.64e+11 9.25e+10 
5750.00 7.45e+04 8.14e-12 3.04e+11 7.79e+10 
6250.00 6.88e+04 6.85e-12 2.52e+11 6.55e+10 
6750.00 4.53e+04 5.77e-12 2.27e+11 5.54e+10 
7250.00 4.10e+04 4.85e-12 1.97e+11 4.87e+10 
7750.00 3.72e+04 4.08e-12 1.78e+11 4.45e+10 
8250.00 3.52e+04 3.44e-12 1.65e+11 4.15e+10 
8750.00 3.52e+04 2.89e-12 1.50e+11 3.88e+10 
9250.00 3.41e+04 2.43e-12 1.35e+11 3.58e+10 
9750.00 3.06e+04 2.05e-12 1.20e+11 3.25e+10 
10250.00 2.57e+04 1.72e-12 1.03e+11 2.90e+10 
10750.00 2.24e+04 1.45e-12 8.08e+10 2.55e+10 
11250.00 1.96e+04 1.22e-12 6.29e+10 2.21e+10 
11750.00 1.77e+04 1.03e-12 4.85e+10 1.89e+10 
12250.00 1.58e+04 8.63e-13 3.50e+10 1.60e+10 
12750.00 1.44e+04 7.26e-13 2.65e+10 1.35e+10 
13250.00 1.35e+04 6.11e-13 2.12e+10 1.13e+10 
13750.00 1.25e+04 5.14e-13 1.69e+10 9.54e+09 
14250.00 1.14e+04 4.33e-13 1.37e+10 8.02e+09 
14750.00 1.07e+04 3.64e-13 1.13e+10 6.75e+09 
15250.00 9.97e+03 3.06e-13 9.49e+09 5.68e+09 
15750.00 9.49e+03 2.58e-13 7.96e+09 4.78e+09 
16250.00 9.02e+03 2.17e-13 6.66e+09 4.02e+09 
16750.00 8.75e+03 1.82e-13 5.55e+09 3.38e+09 
17250.00 8.33e+03 1.54e-13 4.62e+09 2.85e+09 
17750.00 8.13e+03 1.29e-13 3.80e+09 2.40e+09 
18250.00 7.91e+03 1.09e-13 3.03e+09 2.02e+09 
18750.00 7.67e+03 9.15e-14 2.43e+09 1.70e+09 
19250.00 7.48e+03 7.69e-14 1.93e+09 1.43e+09 
19750.00 6.29e+03 6.47e-14 1.50e+09 1.20e+09 
20250.00 6.53e+03 5.45e-14 1.20e+09 1.01e+09 
20750.00 6.34e+03 4.58e-14 9.83e+08 8.50e+08 
21250.00 7.27e+03 3.86e-14 8.11e+08 7.15e+08 
21750.00 6.59e+03 3.24e-14 7.15e+08 6.02e+08 
22250.00 4.15e+03 2.73e-14 5.56e+08 5.06e+08 
22750.00 7.67e+03 2.30e-14 4.67e+08 4.26e+08 
23250.00 4.79e+03 1.93e-14 3.89e+08 3.58e+08 
23750.00 6.06e+03 1.63e-14 3.27e+08 3.01e+08 
24250.00 7.09e+03 1.37e-14 2.75e+08 2.54e+08 
24750.00 5.21e+03 1.15e-14 2.31e+08 2.13e+08 
25250.00 4.76e+03 9.69e-15 1.94e+08 1.80e+08 
25750.00 4.81e+03 8.15e-15 1.63e+08 1.51e+08 
26250.00 4.71e+03 6.86e-15 1.37e+08 1.27e+08 
26750.00 5.33e+03 5.77e-15 1.15e+08 1.07e+08 
27250.00 4.99e+03 4.85e-15 9.68e+07 9.00e+07 
27750.00 4.14e+03 4.08e-15 8.15e+07 7.57e+07 
28250.00 4.68e+03 3.44e-15 6.85e+07 6.37e+07 
28750.00 4.89e+03 2.89e-15 5.76e+07 5.36e+07 
29250.00 9.03e+03 2.43e-15 4.85e+07 4.51e+07 
29750.00 4.26e+03 2.05e-15 4.08e+07 3.79e+07 
30250.00 3.76e+03 1.72e-15 3.43e+07 3.19e+07 
30750.00 4.66e+03 1.45e-15 2.89e+07 2.69e+07 
31250.00 4.70e+03 1.22e-15 2.43e+07 2.26e+07 
31750.00 4.58e+03 1.03e-15 2.04e+07 1.90e+07 
32250.00 4.17e+03 8.63e-16 1.72e+07 1.60e+07 
32750.00 4.33e+03 7.26e-16 1.44e+07 1.35e+07 
33250.00 5.18e+03 6.11e-16 1.22e+07 1.13e+07 
33750.00 3.85e+03 5.14e-16 1.02e+07 9.53e+06 
34250.00 4.04e+03 4.32e-16 8.60e+06 8.02e+06 
34750.00 3.85e+03 3.64e-16 7.23e+06 6.75e+06 
35250.00 4.36e+03 3.06e-16 6.09e+06 5.68e+06 
35750.00 4.68e+03 2.58e-16 5.14e+06 4.78e+06 
36250.00 3.50e+03 2.17e-16 4.30e+06 4.02e+06 
36750.00 3.50e+03 1.82e-16 3.62e+06 3.38e+06 
37250.00 3.50e+03 1.53e-16 3.02e+06 2.84e+06 
37750.00 3.50e+03 1.29e-16 2.53e+06 2.39e+06 
38250.00 3.50e+03 1.09e-16 2.12e+06 2.01e+06 
38750.00 3.50e+03 9.14e-17 1.75e+06 1.69e+06 
39250.00 3.50e+03 7.69e-17 1.46e+06 1.43e+06 
39750.00 3.50e+03 6.47e-17 1.23e+06 1.20e+06 
40250.00 3.50e+03 5.44e-17 1.03e+06 1.01e+06 
#TIME: 4.49 
#NVEL: 81 
#vel_mid[km/s] temp[K] rho[gcc] ne[/cm^3] natom[/cm^3] 
250.00 1.40e+05 4.91e-11 1.94e+12 4.70e+11 
750.00 1.40e+05 4.24e-11 1.68e+12 4.05e+11 
1250.00 1.40e+05 3.59e-11 1.42e+12 3.44e+11 
1750.00 1.39e+05 3.03e-11 1.20e+12 2.90e+11 
2250.00 1.28e+05 2.56e-11 1.00e+12 2.44e+11 
2750.00 1.17e+05 2.15e-11 8.35e+11 2.06e+11 
3250.00 1.08e+05 1.81e-11 6.98e+11 1.73e+11 
3750.00 1.00e+05 1.53e-11 5.84e+11 1.46e+11 
4250.00 9.20e+04 1.28e-11 4.88e+11 1.23e+11 
4750.00 8.52e+04 1.08e-11 4.09e+11 1.03e+11 
5250.00 7.88e+04 9.10e-12 3.43e+11 8.70e+10 
5750.00 7.30e+04 7.66e-12 2.86e+11 7.32e+10 
6250.00 6.75e+04 6.45e-12 2.37e+11 6.16e+10 
6750.00 4.42e+04 5.42e-12 2.13e+11 5.21e+10 
7250.00 4.01e+04 4.56e-12 1.85e+11 4.58e+10 
7750.00 3.67e+04 3.84e-12 1.67e+11 4.19e+10 
8250.00 3.48e+04 3.23e-12 1.55e+11 3.91e+10 
8750.00 3.48e+04 2.72e-12 1.41e+11 3.65e+10 
9250.00 3.36e+04 2.29e-12 1.27e+11 3.37e+10 
9750.00 2.99e+04 1.93e-12 1.13e+11 3.06e+10 
10250.00 2.50e+04 1.62e-12 9.58e+10 2.73e+10 
10750.00 2.15e+04 1.36e-12 7.47e+10 2.40e+10 
11250.00 1.93e+04 1.15e-12 5.85e+10 2.08e+10 
11750.00 1.74e+04 9.65e-13 4.51e+10 1.78e+10 
12250.00 1.56e+04 8.12e-13 3.21e+10 1.50e+10 
12750.00 1.42e+04 6.83e-13 2.47e+10 1.27e+10 
13250.00 1.33e+04 5.75e-13 1.97e+10 1.07e+10 
13750.00 1.23e+04 4.84e-13 1.57e+10 8.97e+09 
14250.00 1.13e+04 4.07e-13 1.28e+10 7.55e+09 
14750.00 1.06e+04 3.42e-13 1.07e+10 6.35e+09 
15250.00 9.77e+03 2.88e-13 8.92e+09 5.34e+09 
15750.00 9.28e+03 2.42e-13 7.48e+09 4.49e+09 
16250.00 8.91e+03 2.04e-13 6.26e+09 3.78e+09 
16750.00 8.63e+03 1.72e-13 5.22e+09 3.18e+09 
17250.00 8.19e+03 1.44e-13 4.33e+09 2.68e+09 
17750.00 8.00e+03 1.21e-13 3.53e+09 2.25e+09 
18250.00 7.85e+03 1.02e-13 2.86e+09 1.90e+09 
18750.00 6.98e+03 8.60e-14 2.25e+09 1.59e+09 
19250.00 7.31e+03 7.24e-14 1.80e+09 1.34e+09 
19750.00 6.86e+03 6.09e-14 1.41e+09 1.13e+09 
20250.00 7.27e+03 5.12e-14 1.13e+09 9.50e+08 
20750.00 7.42e+03 4.31e-14 9.59e+08 7.99e+08 
21250.00 6.34e+03 3.63e-14 8.19e+08 6.72e+08 
21750.00 6.15e+03 3.05e-14 6.26e+08 5.66e+08 
22250.00 6.23e+03 2.57e-14 5.23e+08 4.76e+08 
22750.00 6.18e+03 2.16e-14 4.37e+08 4.00e+08 
23250.00 5.03e+03 1.82e-14 3.66e+08 3.37e+08 
23750.00 6.24e+03 1.53e-14 3.07e+08 2.84e+08 
24250.00 4.91e+03 1.29e-14 2.58e+08 2.39e+08 
24750.00 5.02e+03 1.08e-14 2.17e+08 2.01e+08 
25250.00 4.40e+03 9.11e-15 1.82e+08 1.69e+08 
25750.00 4.90e+03 7.66e-15 1.53e+08 1.42e+08 
26250.00 4.74e+03 6.45e-15 1.29e+08 1.20e+08 
26750.00 5.10e+03 5.42e-15 1.08e+08 1.01e+08 
27250.00 8.63e+03 4.56e-15 9.11e+07 8.46e+07 
27750.00 6.09e+03 3.84e-15 7.66e+07 7.12e+07 
28250.00 4.88e+03 3.23e-15 6.45e+07 5.99e+07 
28750.00 4.26e+03 2.72e-15 5.42e+07 5.04e+07 
29250.00 4.51e+03 2.29e-15 4.56e+07 4.24e+07 
29750.00 4.14e+03 1.92e-15 3.83e+07 3.57e+07 
30250.00 4.36e+03 1.62e-15 3.23e+07 3.00e+07 
30750.00 4.59e+03 1.36e-15 2.72e+07 2.53e+07 
31250.00 5.15e+03 1.15e-15 2.29e+07 2.13e+07 
31750.00 4.32e+03 9.64e-16 1.92e+07 1.79e+07 
32250.00 4.05e+03 8.11e-16 1.61e+07 1.50e+07 
32750.00 5.95e+03 6.83e-16 1.36e+07 1.27e+07 
33250.00 4.44e+03 5.74e-16 1.14e+07 1.07e+07 
33750.00 4.33e+03 4.83e-16 9.61e+06 8.96e+06 
34250.00 4.72e+03 4.07e-16 8.09e+06 7.54e+06 
34750.00 3.53e+03 3.42e-16 6.79e+06 6.34e+06 
35250.00 3.50e+03 2.88e-16 5.70e+06 5.34e+06 
35750.00 3.62e+03 2.42e-16 4.81e+06 4.49e+06 
36250.00 3.74e+03 2.04e-16 4.05e+06 3.78e+06 
36750.00 3.91e+03 1.71e-16 3.40e+06 3.18e+06 
37250.00 3.78e+03 1.44e-16 2.88e+06 2.67e+06 
37750.00 4.08e+03 1.21e-16 2.42e+06 2.25e+06 
38250.00 3.50e+03 1.02e-16 2.02e+06 1.89e+06 
38750.00 3.50e+03 8.59e-17 1.70e+06 1.59e+06 
39250.00 3.50e+03 7.23e-17 1.43e+06 1.34e+06 
39750.00 3.85e+03 6.08e-17 1.20e+06 1.13e+06 
40250.00 3.50e+03 5.12e-17 1.01e+06 9.49e+05 
#TIME: 4.58 
#NVEL: 81 
#vel_mid[km/s] temp[K] rho[gcc] ne[/cm^3] natom[/cm^3] 
250.00 1.40e+05 4.62e-11 1.82e+12 4.42e+11 
750.00 1.40e+05 3.99e-11 1.59e+12 3.81e+11 
1250.00 1.40e+05 3.38e-11 1.34e+12 3.23e+11 
