#NTIMES: 50
#TIMES[d]: 199.16 202.03 204.93 207.87 210.86 213.89 216.97 220.09 223.25 226.46 229.71 233.01 236.36 239.76 243.21 246.70 250.25 253.85 257.50 261.20 264.95 268.76 272.62 276.54 280.51 284.55 288.64 292.79 296.99 301.26 305.59 309.99 314.44 318.96 323.55 328.19 332.91 337.70 342.55 347.48 352.47 357.54 362.68 367.89 373.18 378.54 383.98 389.50 395.10 400.78
#
#TIME: 199.16
#NVEL: 81
#vel_mid[km/s] temp[K] rho[gcc] ne[/cm^3] natom[/cm^3]
250.00 6.1019e+03 5.6286e-16 1.3501e+07 5.9636e+06
750.00 6.3189e+03 4.8567e-16 1.2070e+07 5.1461e+06
1250.00 6.6042e+03 4.1158e-16 1.0675e+07 4.3607e+06
1750.00 6.8882e+03 3.4741e-16 9.3361e+06 3.6802e+06
2250.00 7.1298e+03 2.9282e-16 8.0866e+06 3.1019e+06
2750.00 7.3418e+03 2.4666e-16 6.9636e+06 2.6135e+06
3250.00 7.5619e+03 2.0771e-16 5.9826e+06 2.2006e+06
3750.00 7.7858e+03 1.7485e-16 5.1293e+06 1.8525e+06
4250.00 8.0560e+03 1.4718e-16 4.4037e+06 1.5593e+06
4750.00 8.3371e+03 1.2388e-16 3.7723e+06 1.3125e+06
5250.00 8.6883e+03 1.0426e-16 3.2399e+06 1.1045e+06
5750.00 9.0430e+03 8.7740e-17 2.7735e+06 9.2959e+05
6250.00 9.4467e+03 7.3836e-17 2.3801e+06 7.8232e+05
6750.00 9.7747e+03 6.2133e-17 2.0341e+06 6.6096e+05
7250.00 9.6678e+03 5.2285e-17 1.7419e+06 5.7874e+05
7750.00 9.0902e+03 4.3996e-17 1.4916e+06 5.2626e+05
8250.00 8.3681e+03 3.7021e-17 1.2749e+06 4.8731e+05
8750.00 7.6939e+03 3.1151e-17 1.0613e+06 4.5178e+05
9250.00 7.0705e+03 2.6213e-17 8.6956e+05 4.1489e+05
9750.00 6.5148e+03 2.2056e-17 7.1428e+05 3.7540e+05
10250.00 6.0536e+03 1.8558e-17 5.8042e+05 3.3420e+05
10750.00 5.6604e+03 1.5615e-17 4.7402e+05 2.9305e+05
11250.00 5.3776e+03 1.3139e-17 3.8967e+05 2.5333e+05
11750.00 5.1521e+03 1.1055e-17 3.2499e+05 2.1652e+05
12250.00 5.0518e+03 9.3021e-18 2.7424e+05 1.8329e+05
12750.00 5.0333e+03 7.8268e-18 2.3358e+05 1.5431e+05
13250.00 4.9736e+03 6.5854e-18 2.0129e+05 1.2983e+05
13750.00 5.0220e+03 5.5411e-18 1.6874e+05 1.0925e+05
14250.00 5.0103e+03 4.6622e-18 1.4517e+05 9.1927e+04
14750.00 5.0739e+03 3.9227e-18 1.2460e+05 7.7352e+04
15250.00 5.0875e+03 3.3006e-18 1.0586e+05 6.5072e+04
15750.00 5.0568e+03 2.7771e-18 8.9106e+04 5.4761e+04
16250.00 5.0916e+03 2.3365e-18 7.9381e+04 4.6059e+04
16750.00 5.0936e+03 1.9660e-18 6.5784e+04 3.8763e+04
17250.00 5.2045e+03 1.6542e-18 5.7510e+04 3.2612e+04
17750.00 5.1201e+03 1.3918e-18 4.8717e+04 2.7439e+04
18250.00 5.3376e+03 1.1710e-18 4.2306e+04 2.3087e+04
18750.00 5.4014e+03 9.8528e-19 3.6570e+04 1.9426e+04
19250.00 5.4042e+03 8.2900e-19 3.2001e+04 1.6344e+04
19750.00 5.4402e+03 6.9750e-19 2.6808e+04 1.3751e+04
20250.00 5.5174e+03 5.8687e-19 2.2228e+04 1.1571e+04
20750.00 5.5511e+03 4.9378e-19 1.9738e+04 9.7346e+03
21250.00 5.8146e+03 4.1545e-19 1.6431e+04 8.1910e+03
21750.00 5.7540e+03 3.4956e-19 1.4433e+04 6.8921e+03
22250.00 6.0194e+03 2.9412e-19 1.2188e+04 5.7986e+03
22750.00 6.0348e+03 2.4745e-19 1.0512e+04 4.8781e+03
23250.00 6.3194e+03 2.0820e-19 9.0402e+03 4.1042e+03
23750.00 6.7822e+03 1.7518e-19 7.6386e+03 3.4537e+03
24250.00 6.9685e+03 1.4739e-19 6.6864e+03 2.9058e+03
24750.00 7.2911e+03 1.2401e-19 5.7642e+03 2.4450e+03
25250.00 7.8942e+03 1.0434e-19 4.9824e+03 2.0571e+03
25750.00 8.7538e+03 8.7791e-20 4.2319e+03 1.7306e+03
26250.00 9.6503e+03 7.3864e-20 3.6130e+03 1.4562e+03
26750.00 1.0383e+04 6.2147e-20 3.1194e+03 1.2252e+03
27250.00 1.1133e+04 5.2288e-20 2.6762e+03 1.0309e+03
27750.00 1.1838e+04 4.3994e-20 2.2842e+03 8.6732e+02
28250.00 1.2578e+04 3.7015e-20 1.9515e+03 7.2977e+02
28750.00 1.3416e+04 3.1145e-20 1.6588e+03 6.1401e+02
29250.00 1.4366e+04 2.6205e-20 1.4117e+03 5.1659e+02
29750.00 1.5231e+04 2.2048e-20 1.2007e+03 4.3465e+02
30250.00 1.6144e+04 1.8550e-20 1.0209e+03 3.6569e+02
30750.00 1.7204e+04 1.5608e-20 8.6430e+02 3.0767e+02
31250.00 1.8154e+04 1.3132e-20 7.3284e+02 2.5885e+02
31750.00 1.9281e+04 1.1049e-20 6.2082e+02 2.1786e+02
32250.00 2.0418e+04 9.2960e-21 5.2533e+02 1.8328e+02
32750.00 2.1692e+04 7.8215e-21 4.4453e+02 1.5421e+02
33250.00 2.3017e+04 6.5807e-21 3.7564e+02 1.2974e+02
33750.00 2.4158e+04 5.5368e-21 3.1762e+02 1.0916e+02
34250.00 2.5571e+04 4.6585e-21 2.6838e+02 9.1847e+01
34750.00 2.6926e+04 3.9196e-21 2.2658e+02 7.7269e+01
35250.00 2.8363e+04 3.2978e-21 1.9118e+02 6.5013e+01
35750.00 2.9873e+04 2.7748e-21 1.6126e+02 5.4699e+01
36250.00 3.0000e+04 2.3346e-21 1.3600e+02 4.6027e+01
36750.00 3.0000e+04 1.9642e-21 1.1462e+02 3.8729e+01
37250.00 3.0000e+04 1.6526e-21 9.6603e+01 3.2581e+01
37750.00 3.0000e+04 1.3905e-21 8.1409e+01 2.7417e+01
38250.00 3.0000e+04 1.1699e-21 6.8584e+01 2.3064e+01
38750.00 3.0000e+04 9.8432e-22 5.7776e+01 1.9407e+01
39250.00 3.0000e+04 8.2819e-22 4.8657e+01 1.6328e+01
39750.00 3.0000e+04 6.9681e-22 4.0973e+01 1.3737e+01
40250.00 3.0000e+04 5.8628e-22 3.4501e+01 1.1558e+01
#TIME: 202.03
#NVEL: 81
#vel_mid[km/s] temp[K] rho[gcc] ne[/cm^3] natom[/cm^3]
250.00 6.0741e+03 5.3927e-16 1.2881e+07 5.7144e+06
750.00 6.2806e+03 4.6532e-16 1.1529e+07 4.9312e+06
1250.00 6.5669e+03 3.9433e-16 1.0216e+07 4.1785e+06
1750.00 6.8486e+03 3.3284e-16 8.9306e+06 3.5276e+06
2250.00 7.0918e+03 2.8055e-16 7.7427e+06 2.9735e+06
2750.00 7.3060e+03 2.3632e-16 6.6743e+06 2.5043e+06
3250.00 7.5218e+03 1.9900e-16 5.7294e+06 2.1088e+06
3750.00 7.7562e+03 1.6752e-16 4.9175e+06 1.7754e+06
4250.00 8.0251e+03 1.4101e-16 4.2172e+06 1.4944e+06
4750.00 8.3097e+03 1.1869e-16 3.6135e+06 1.2576e+06
5250.00 8.6634e+03 9.9887e-17 3.1013e+06 1.0585e+06
5750.00 9.0178e+03 8.4062e-17 2.6580e+06 8.9083e+05
6250.00 9.4397e+03 7.0741e-17 2.2837e+06 7.4969e+05
6750.00 9.7609e+03 5.9529e-17 1.9491e+06 6.3353e+05
7250.00 9.6601e+03 5.0093e-17 1.6695e+06 5.5459e+05
7750.00 9.0828e+03 4.2152e-17 1.4295e+06 5.0423e+05
8250.00 8.3523e+03 3.5469e-17 1.2216e+06 4.6698e+05
8750.00 7.6657e+03 2.9845e-17 1.0168e+06 4.3289e+05
9250.00 7.0352e+03 2.5114e-17 8.3631e+05 3.9753e+05
9750.00 6.4876e+03 2.1132e-17 6.8130e+05 3.5969e+05
10250.00 6.0076e+03 1.7780e-17 5.5666e+05 3.2024e+05
10750.00 5.6306e+03 1.4961e-17 4.5378e+05 2.8074e+05
11250.00 5.3309e+03 1.2588e-17 3.7338e+05 2.4273e+05
11750.00 5.1170e+03 1.0592e-17 3.1084e+05 2.0742e+05
12250.00 5.0227e+03 8.9122e-18 2.6247e+05 1.7560e+05
12750.00 5.0136e+03 7.4987e-18 2.2199e+05 1.4784e+05
13250.00 4.9671e+03 6.3094e-18 1.8974e+05 1.2440e+05
13750.00 4.9601e+03 5.3088e-18 1.6177e+05 1.0466e+05
14250.00 4.9583e+03 4.4668e-18 1.3858e+05 8.8064e+04
14750.00 5.0142e+03 3.7583e-18 1.1974e+05 7.4092e+04
15250.00 5.0794e+03 3.1622e-18 9.9411e+04 6.2348e+04
15750.00 5.0896e+03 2.6607e-18 8.6032e+04 5.2459e+04
16250.00 5.0802e+03 2.2386e-18 7.4189e+04 4.4135e+04
16750.00 4.9335e+03 1.8836e-18 6.3489e+04 3.7135e+04
17250.00 5.1538e+03 1.5848e-18 5.4351e+04 3.1246e+04
17750.00 5.2027e+03 1.3334e-18 4.5880e+04 2.6290e+04
18250.00 5.1543e+03 1.1219e-18 4.0840e+04 2.2120e+04
18750.00 5.0659e+03 9.4398e-19 3.5177e+04 1.8610e+04
19250.00 5.3136e+03 7.9425e-19 3.0054e+04 1.5660e+04
19750.00 5.5291e+03 6.6826e-19 2.4455e+04 1.3176e+04
20250.00 5.6299e+03 5.6227e-19 2.1013e+04 1.1085e+04
20750.00 5.3228e+03 4.7308e-19 1.8822e+04 9.3267e+03
21250.00 5.5284e+03 3.9804e-19 1.6012e+04 7.8483e+03
21750.00 5.4569e+03 3.3491e-19 1.4026e+04 6.6025e+03
22250.00 5.7347e+03 2.8179e-19 1.1955e+04 5.5560e+03
22750.00 5.9883e+03 2.3708e-19 1.0357e+04 4.6738e+03
23250.00 6.0570e+03 1.9947e-19 8.9388e+03 3.9323e+03
23750.00 6.6200e+03 1.6784e-19 7.4856e+03 3.3087e+03
24250.00 7.0848e+03 1.4121e-19 6.2601e+03 2.7842e+03
24750.00 7.5755e+03 1.1881e-19 5.4221e+03 2.3423e+03
25250.00 8.0114e+03 9.9968e-20 4.7886e+03 1.9710e+03
25750.00 8.7022e+03 8.4111e-20 4.0863e+03 1.6582e+03
26250.00 9.3949e+03 7.0768e-20 3.5121e+03 1.3951e+03
26750.00 1.0219e+04 5.9542e-20 2.9981e+03 1.1738e+03
27250.00 1.0952e+04 5.0097e-20 2.5751e+03 9.8762e+02
27750.00 1.1739e+04 4.2150e-20 2.1893e+03 8.3104e+02
28250.00 1.2515e+04 3.5464e-20 1.8697e+03 6.9924e+02
28750.00 1.3425e+04 2.9840e-20 1.5878e+03 5.8828e+02
29250.00 1.4243e+04 2.5107e-20 1.3532e+03 4.9497e+02
29750.00 1.5175e+04 2.1124e-20 1.1489e+03 4.1647e+02
30250.00 1.6065e+04 1.7773e-20 9.7701e+02 3.5038e+02
30750.00 1.7007e+04 1.4953e-20 8.2739e+02 2.9485e+02
31250.00 1.8126e+04 1.2581e-20 7.0113e+02 2.4802e+02
31750.00 1.9222e+04 1.0586e-20 5.9457e+02 2.0871e+02
32250.00 2.0317e+04 8.9064e-21 5.0351e+02 1.7560e+02
32750.00 2.1512e+04 7.4937e-21 4.2587e+02 1.4774e+02
33250.00 2.2753e+04 6.3049e-21 3.6013e+02 1.2430e+02
33750.00 2.4021e+04 5.3047e-21 3.0437e+02 1.0458e+02
34250.00 2.5376e+04 4.4632e-21 2.5706e+02 8.7986e+01
34750.00 2.6732e+04 3.7553e-21 2.1701e+02 7.4035e+01
35250.00 2.8179e+04 3.1596e-21 1.8313e+02 6.2296e+01
35750.00 2.9661e+04 2.6585e-21 1.5449e+02 5.2414e+01
36250.00 3.0000e+04 2.2367e-21 1.3028e+02 4.4101e+01
36750.00 3.0000e+04 1.8819e-21 1.0981e+02 3.7099e+01
37250.00 3.0000e+04 1.5834e-21 9.2554e+01 3.1218e+01
37750.00 3.0000e+04 1.3322e-21 7.7988e+01 2.6267e+01
38250.00 3.0000e+04 1.1209e-21 6.5704e+01 2.2102e+01
38750.00 3.0000e+04 9.4306e-22 5.5348e+01 1.8591e+01
39250.00 3.0000e+04 7.9348e-22 4.6613e+01 1.5644e+01
39750.00 3.0000e+04 6.6761e-22 3.9253e+01 1.3162e+01
40250.00 3.0000e+04 5.6170e-22 3.3052e+01 1.1074e+01
#TIME: 204.93
#NVEL: 81
#vel_mid[km/s] temp[K] rho[gcc] ne[/cm^3] natom[/cm^3]
250.00 6.0454e+03 5.1668e-16 1.2390e+07 5.4774e+06
750.00 6.2405e+03 4.4582e-16 1.1025e+07 4.7251e+06
1250.00 6.5272e+03 3.7781e-16 9.7686e+06 4.0044e+06
1750.00 6.8085e+03 3.1890e-16 8.5502e+06 3.3798e+06
2250.00 7.0543e+03 2.6880e-16 7.4151e+06 2.8494e+06
2750.00 7.2676e+03 2.2642e-16 6.3844e+06 2.3999e+06
3250.00 7.4844e+03 1.9066e-16 5.4847e+06 2.0210e+06
3750.00 7.7284e+03 1.6051e-16 4.7119e+06 1.7014e+06
4250.00 7.9914e+03 1.3510e-16 4.0382e+06 1.4321e+06
4750.00 8.2948e+03 1.1371e-16 3.4691e+06 1.2054e+06
5250.00 8.6254e+03 9.5702e-17 2.9667e+06 1.0144e+06
5750.00 9.0031e+03 8.0540e-17 2.5494e+06 8.5379e+05
6250.00 9.4174e+03 6.7777e-17 2.1861e+06 7.1843e+05
6750.00 9.7467e+03 5.7035e-17 1.8680e+06 6.0705e+05
7250.00 9.6462e+03 4.7994e-17 1.6001e+06 5.3144e+05
7750.00 9.0613e+03 4.0386e-17 1.3686e+06 4.8325e+05
8250.00 8.3350e+03 3.3983e-17 1.1727e+06 4.4744e+05
8750.00 7.6429e+03 2.8595e-17 9.7756e+05 4.1479e+05
9250.00 7.0024e+03 2.4062e-17 8.0226e+05 3.8087e+05
9750.00 6.4550e+03 2.0246e-17 6.5252e+05 3.4464e+05
10250.00 5.9754e+03 1.7035e-17 5.3243e+05 3.0683e+05
10750.00 5.6018e+03 1.4334e-17 4.3469e+05 2.6897e+05
11250.00 5.2979e+03 1.2061e-17 3.5792e+05 2.3256e+05
11750.00 5.0891e+03 1.0148e-17 2.9753e+05 1.9874e+05
12250.00 4.9919e+03 8.5388e-18 2.4876e+05 1.6824e+05
12750.00 4.9962e+03 7.1845e-18 2.1236e+05 1.4164e+05
13250.00 4.9658e+03 6.0450e-18 1.8021e+05 1.1919e+05
13750.00 4.9592e+03 5.0864e-18 1.5377e+05 1.0028e+05
14250.00 4.9329e+03 4.2797e-18 1.3153e+05 8.4370e+04
14750.00 4.9621e+03 3.6008e-18 1.1435e+05 7.0988e+04
15250.00 5.0729e+03 3.0297e-18 9.5840e+04 5.9728e+04
15750.00 5.0869e+03 2.5492e-18 8.1986e+04 5.0261e+04
16250.00 5.1049e+03 2.1448e-18 7.1035e+04 4.2278e+04
16750.00 5.0267e+03 1.8046e-18 6.1355e+04 3.5576e+04
17250.00 5.1313e+03 1.5184e-18 5.2831e+04 2.9935e+04
17750.00 5.0380e+03 1.2776e-18 4.4137e+04 2.5187e+04
18250.00 5.1480e+03 1.0749e-18 3.8819e+04 2.1193e+04
18750.00 5.2141e+03 9.0443e-19 3.2878e+04 1.7831e+04
19250.00 5.3371e+03 7.6097e-19 2.8322e+04 1.5003e+04
19750.00 5.4046e+03 6.4027e-19 2.3320e+04 1.2623e+04
20250.00 5.3927e+03 5.3871e-19 2.0233e+04 1.0621e+04
20750.00 5.1505e+03 4.5326e-19 1.8030e+04 8.9358e+03
21250.00 5.6494e+03 3.8136e-19 1.5330e+04 7.5177e+03
21750.00 5.7392e+03 3.2088e-19 1.3492e+04 6.3260e+03
22250.00 5.8592e+03 2.6999e-19 1.1564e+04 5.3228e+03
22750.00 6.0115e+03 2.2714e-19 9.8437e+03 4.4785e+03
23250.00 6.0752e+03 1.9111e-19 8.1605e+03 3.7680e+03
23750.00 6.4818e+03 1.6080e-19 7.2252e+03 3.1700e+03
24250.00 6.7936e+03 1.3530e-19 6.2271e+03 2.6673e+03
24750.00 7.1946e+03 1.1384e-19 5.3217e+03 2.2444e+03
25250.00 7.9182e+03 9.5779e-20 4.5446e+03 1.8883e+03
25750.00 8.5580e+03 8.0587e-20 3.8867e+03 1.5888e+03
26250.00 9.1564e+03 6.7803e-20 3.3747e+03 1.3368e+03
26750.00 1.0039e+04 5.7047e-20 2.8863e+03 1.1247e+03
27250.00 1.0931e+04 4.7998e-20 2.4437e+03 9.4623e+02
27750.00 1.1692e+04 4.0384e-20 2.0914e+03 7.9624e+02
28250.00 1.2516e+04 3.3978e-20 1.7804e+03 6.6986e+02
28750.00 1.3258e+04 2.8589e-20 1.5205e+03 5.6364e+02
29250.00 1.4072e+04 2.4055e-20 1.2990e+03 4.7418e+02
29750.00 1.4992e+04 2.0239e-20 1.1030e+03 3.9900e+02
30250.00 1.5930e+04 1.7028e-20 9.3508e+02 3.3567e+02
30750.00 1.6978e+04 1.4327e-20 7.9207e+02 2.8245e+02
31250.00 1.8053e+04 1.2054e-20 6.7148e+02 2.3769e+02
31750.00 1.9066e+04 1.0142e-20 5.6909e+02 2.0000e+02
32250.00 2.0181e+04 8.5332e-21 4.8203e+02 1.6822e+02
32750.00 2.1377e+04 7.1797e-21 4.0789e+02 1.4155e+02
33250.00 2.2616e+04 6.0407e-21 3.4488e+02 1.1910e+02
33750.00 2.3890e+04 5.0825e-21 2.9144e+02 1.0020e+02
34250.00 2.5187e+04 4.2762e-21 2.4624e+02 8.4300e+01
34750.00 2.6561e+04 3.5979e-21 2.0788e+02 7.0934e+01
35250.00 2.7967e+04 3.0272e-21 1.7539e+02 5.9682e+01
35750.00 2.9422e+04 2.5471e-21 1.4799e+02 5.0218e+01
36250.00 3.0000e+04 2.1430e-21 1.2486e+02 4.2253e+01
36750.00 3.0000e+04 1.8030e-21 1.0521e+02 3.5552e+01
37250.00 3.0000e+04 1.5170e-21 8.8671e+01 2.9907e+01
37750.00 3.0000e+04 1.2764e-21 7.4713e+01 2.5167e+01
38250.00 3.0000e+04 1.0739e-21 6.2942e+01 2.1177e+01
38750.00 3.0000e+04 9.0355e-22 5.3025e+01 1.7817e+01
39250.00 3.0000e+04 7.6023e-22 4.4656e+01 1.4988e+01
39750.00 3.0000e+04 6.3963e-22 3.7607e+01 1.2611e+01
40250.00 3.0000e+04 5.3817e-22 3.1666e+01 1.0610e+01
#TIME: 207.87
#NVEL: 81
#vel_mid[km/s] temp[K] rho[gcc] ne[/cm^3] natom[/cm^3]
250.00 6.0117e+03 4.9502e-16 1.1806e+07 5.2478e+06
750.00 6.2039e+03 4.2713e-16 1.0553e+07 4.5289e+06
1250.00 6.4843e+03 3.6197e-16 9.3467e+06 3.8375e+06
1750.00 6.7687e+03 3.0553e-16 8.1891e+06 3.2391e+06
2250.00 7.0154e+03 2.5753e-16 7.1013e+06 2.7303e+06
2750.00 7.2339e+03 2.1693e-16 6.1214e+06 2.3000e+06
3250.00 7.4500e+03 1.8267e-16 5.2533e+06 1.9367e+06
3750.00 7.6946e+03 1.5378e-16 4.5091e+06 1.6304e+06
4250.00 7.9587e+03 1.2944e-16 3.8666e+06 1.3724e+06
4750.00 8.2826e+03 1.0895e-16 3.3257e+06 1.1551e+06
5250.00 8.6047e+03 9.1691e-17 2.8472e+06 9.7214e+05
5750.00 8.9882e+03 7.7164e-17 2.4435e+06 8.1811e+05
6250.00 9.3925e+03 6.4936e-17 2.0949e+06 6.8847e+05
6750.00 9.7447e+03 5.4644e-17 1.7931e+06 5.8180e+05
7250.00 9.6411e+03 4.5982e-17 1.5349e+06 5.0934e+05
7750.00 9.0597e+03 3.8693e-17 1.3151e+06 4.6302e+05
8250.00 8.3164e+03 3.2559e-17 1.1245e+06 4.2874e+05
8750.00 7.6123e+03 2.7396e-17 9.3828e+05 3.9743e+05
9250.00 6.9762e+03 2.3053e-17 7.6729e+05 3.6495e+05
9750.00 6.4152e+03 1.9398e-17 6.2694e+05 3.3020e+05
10250.00 5.9397e+03 1.6321e-17 5.0996e+05 2.9398e+05
10750.00 5.5656e+03 1.3733e-17 4.1843e+05 2.5770e+05
11250.00 5.2832e+03 1.1555e-17 3.4087e+05 2.2281e+05
11750.00 5.0852e+03 9.7228e-18 2.8212e+05 1.9041e+05
12250.00 4.9628e+03 8.1809e-18 2.3625e+05 1.6120e+05
12750.00 4.9543e+03 6.8834e-18 2.0323e+05 1.3571e+05
13250.00 4.9317e+03 5.7917e-18 1.7309e+05 1.1420e+05
13750.00 4.9546e+03 4.8732e-18 1.4652e+05 9.6070e+04
14250.00 4.9034e+03 4.1003e-18 1.2581e+05 8.0827e+04
14750.00 4.9069e+03 3.4499e-18 1.1015e+05 6.8020e+04
15250.00 4.9872e+03 2.9027e-18 9.2684e+04 5.7218e+04
15750.00 4.9999e+03 2.4424e-18 7.8400e+04 4.8151e+04
16250.00 5.0880e+03 2.0549e-18 6.7106e+04 4.0514e+04
16750.00 4.9134e+03 1.7290e-18 5.8527e+04 3.4090e+04
17250.00 5.1159e+03 1.4548e-18 5.0582e+04 2.8680e+04
17750.00 5.1682e+03 1.2240e-18 4.2921e+04 2.4132e+04
18250.00 4.9178e+03 1.0299e-18 3.6111e+04 2.0305e+04
18750.00 5.2559e+03 8.6652e-19 3.1742e+04 1.7084e+04
19250.00 4.9624e+03 7.2907e-19 2.7120e+04 1.4374e+04
19750.00 5.3978e+03 6.1343e-19 2.2592e+04 1.2095e+04
20250.00 5.3278e+03 5.1613e-19 1.9419e+04 1.0176e+04
20750.00 5.4467e+03 4.3426e-19 1.6907e+04 8.5618e+03
21250.00 5.5877e+03 3.6537e-19 1.4203e+04 7.2039e+03
21750.00 5.6453e+03 3.0743e-19 1.2719e+04 6.0612e+03
22250.00 5.5588e+03 2.5867e-19 1.0939e+04 5.0990e+03
22750.00 5.5582e+03 2.1762e-19 9.3260e+03 4.2901e+03
23250.00 6.1571e+03 1.8310e-19 7.9677e+03 3.6098e+03
23750.00 6.1619e+03 1.5406e-19 6.9812e+03 3.0374e+03
24250.00 6.5605e+03 1.2963e-19 5.9248e+03 2.5557e+03
24750.00 7.0368e+03 1.0907e-19 5.0504e+03 2.1503e+03
25250.00 7.4422e+03 9.1765e-20 4.3241e+03 1.8091e+03
25750.00 8.1197e+03 7.7209e-20 3.7408e+03 1.5221e+03
26250.00 9.1970e+03 6.4961e-20 3.1516e+03 1.2807e+03
26750.00 9.9618e+03 5.4656e-20 2.7407e+03 1.0775e+03
27250.00 1.0918e+04 4.5986e-20 2.3158e+03 9.0658e+02
27750.00 1.1693e+04 3.8692e-20 1.9850e+03 7.6283e+02
28250.00 1.2453e+04 3.2554e-20 1.7003e+03 6.4177e+02
28750.00 1.3141e+04 2.7391e-20 1.4574e+03 5.4004e+02
29250.00 1.4027e+04 2.3046e-20 1.2380e+03 4.5440e+02
29750.00 1.4884e+04 1.9391e-20 1.0575e+03 3.8229e+02
30250.00 1.5848e+04 1.6314e-20 8.9620e+02 3.2163e+02
30750.00 1.6878e+04 1.3726e-20 7.5990e+02 2.7066e+02
31250.00 1.7866e+04 1.1549e-20 6.4334e+02 2.2769e+02
31750.00 1.8937e+04 9.7169e-21 5.4488e+02 1.9157e+02
32250.00 2.0067e+04 8.1755e-21 4.6126e+02 1.6118e+02
32750.00 2.1260e+04 6.8787e-21 3.9067e+02 1.3562e+02
33250.00 2.2444e+04 5.7875e-21 3.3061e+02 1.1411e+02
33750.00 2.3720e+04 4.8694e-21 2.7936e+02 9.6003e+01
34250.00 2.5024e+04 4.0970e-21 2.3585e+02 8.0774e+01
34750.00 2.6371e+04 3.4471e-21 1.9912e+02 6.7957e+01
35250.00 2.7755e+04 2.9003e-21 1.6800e+02 5.7177e+01
35750.00 2.9186e+04 2.4403e-21 1.4176e+02 4.8109e+01
36250.00 3.0000e+04 2.0532e-21 1.1959e+02 4.0479e+01
36750.00 3.0000e+04 1.7275e-21 1.0080e+02 3.4057e+01
37250.00 3.0000e+04 1.4534e-21 8.4949e+01 2.8659e+01
37750.00 3.0000e+04 1.2229e-21 7.1579e+01 2.4105e+01
38250.00 3.0000e+04 1.0289e-21 6.0300e+01 2.0287e+01
38750.00 3.0000e+04 8.6568e-22 5.0796e+01 1.7068e+01
39250.00 3.0000e+04 7.2837e-22 4.2783e+01 1.4360e+01
39750.00 3.0000e+04 6.1282e-22 3.6028e+01 1.2081e+01
40250.00 3.0000e+04 5.1561e-22 3.0337e+01 1.0165e+01
#TIME: 210.86
#NVEL: 81
#vel_mid[km/s] temp[K] rho[gcc] ne[/cm^3] natom[/cm^3]
250.00 5.9772e+03 4.7427e-16 1.1267e+07 5.0298e+06
750.00 6.1718e+03 4.0923e-16 1.0120e+07 4.3397e+06
1250.00 6.4427e+03 3.4680e-16 8.9265e+06 3.6781e+06
1750.00 6.7278e+03 2.9273e-16 7.8260e+06 3.1048e+06
2250.00 6.9765e+03 2.4674e-16 6.7868e+06 2.6165e+06
2750.00 7.2009e+03 2.0784e-16 5.8613e+06 2.2042e+06
3250.00 7.4136e+03 1.7501e-16 5.0269e+06 1.8560e+06
3750.00 7.6599e+03 1.4733e-16 4.3167e+06 1.5624e+06
4250.00 7.9305e+03 1.2402e-16 3.7051e+06 1.3152e+06
4750.00 8.2635e+03 1.0438e-16 3.1840e+06 1.1069e+06
5250.00 8.5920e+03 8.7848e-17 2.7299e+06 9.3159e+05
5750.00 8.9651e+03 7.3930e-17 2.3404e+06 7.8395e+05
6250.00 9.3759e+03 6.2215e-17 2.0081e+06 6.5981e+05
6750.00 9.7231e+03 5.2354e-17 1.7157e+06 5.5752e+05
7250.00 9.6391e+03 4.4055e-17 1.4725e+06 4.8803e+05
7750.00 9.0565e+03 3.7072e-17 1.2616e+06 4.4374e+05
8250.00 8.3010e+03 3.1194e-17 1.0774e+06 4.1083e+05
8750.00 7.5781e+03 2.6248e-17 8.9972e+05 3.8081e+05
9250.00 6.9431e+03 2.2087e-17 7.3648e+05 3.4967e+05
9750.00 6.3803e+03 1.8585e-17 6.0036e+05 3.1637e+05
10250.00 5.8947e+03 1.5637e-17 4.8945e+05 2.8167e+05
10750.00 5.5247e+03 1.3158e-17 4.0014e+05 2.4691e+05
11250.00 5.2388e+03 1.1071e-17 3.2723e+05 2.1347e+05
11750.00 5.0326e+03 9.3153e-18 2.7158e+05 1.8243e+05
12250.00 4.9267e+03 7.8380e-18 2.2660e+05 1.5444e+05
12750.00 4.9333e+03 6.5949e-18 1.9247e+05 1.3003e+05
13250.00 4.9266e+03 5.5489e-18 1.6343e+05 1.0939e+05
13750.00 4.8772e+03 4.6690e-18 1.4142e+05 9.2038e+04
14250.00 4.8703e+03 3.9284e-18 1.2051e+05 7.7447e+04
14750.00 4.8782e+03 3.3053e-18 1.0239e+05 6.5171e+04
15250.00 4.9408e+03 2.7811e-18 8.6434e+04 5.4825e+04
15750.00 4.9609e+03 2.3400e-18 7.4247e+04 4.6131e+04
16250.00 5.0309e+03 1.9688e-18 6.4415e+04 3.8812e+04
16750.00 5.0059e+03 1.6565e-18 5.3952e+04 3.2658e+04
17250.00 5.0705e+03 1.3938e-18 4.6035e+04 2.7478e+04
17750.00 5.0589e+03 1.1727e-18 4.0184e+04 2.3121e+04
18250.00 4.8196e+03 9.8671e-19 3.4905e+04 1.9452e+04
18750.00 5.1172e+03 8.3020e-19 2.9881e+04 1.6368e+04
19250.00 4.7268e+03 6.9852e-19 2.5846e+04 1.3771e+04
19750.00 5.1526e+03 5.8772e-19 2.2126e+04 1.1587e+04
