#NTIMES: 4
#NWAVE: 10000
#TIMES[d]: 5.0 10.0 15.0 20.0
#wavelength[Ang] flux_t0[erg/s/Ang] flux_t1[erg/s/Ang] ... flux_tn[erg/s/Ang]
2.000000E+04 8.178660E+36 2.324064E+37 2.461658E+37 1.654203E+37
1.992230E+04 8.294706E+36 2.356070E+37 2.501009E+37 1.690049E+37
1.984521E+04 8.412226E+36 2.388797E+37 2.539894E+37 1.769649E+37
1.976871E+04 8.531276E+36 2.422339E+37 2.577171E+37 1.814512E+37
1.969279E+04 8.653222E+36 2.457215E+37 2.619542E+37 1.855721E+37
1.961746E+04 8.776288E+36 2.492932E+37 2.656044E+37 1.901400E+37
1.954270E+04 8.905015E+36 2.528494E+37 2.686339E+37 1.939137E+37
1.946851E+04 9.036843E+36 2.564047E+37 2.727076E+37 1.970973E+37
1.939488E+04 9.169489E+36 2.600060E+37 2.772067E+37 1.989104E+37
1.932180E+04 9.302312E+36 2.636612E+37 2.811388E+37 2.030453E+37
1.924928E+04 9.435552E+36 2.672583E+37 2.858331E+37 2.082190E+37
1.917729E+04 9.565930E+36 2.708933E+37 2.906248E+37 2.103559E+37
1.910585E+04 9.696728E+36 2.745635E+37 2.954054E+37 2.155643E+37
1.903493E+04 9.827604E+36 2.782971E+37 3.002064E+37 2.165380E+37
1.896454E+04 9.961246E+36 2.821269E+37 3.043698E+37 2.185522E+37
1.889466E+04 1.009555E+37 2.858467E+37 3.080688E+37 2.204280E+37
1.882530E+04 1.022929E+37 2.896098E+37 3.121360E+37 2.238955E+37
1.875645E+04 1.036357E+37 2.934354E+37 3.151162E+37 2.280684E+37
1.868810E+04 1.049984E+37 2.972289E+37 3.187645E+37 2.354318E+37
1.862024E+04 1.063256E+37 3.010577E+37 3.226436E+37 2.387218E+37
1.855288E+04 1.076557E+37 3.049026E+37 3.258625E+37 2.407698E+37
1.848600E+04 1.089878E+37 3.087474E+37 3.290730E+37 2.438638E+37
1.841960E+04 1.103267E+37 3.126441E+37 3.326301E+37 2.453509E+37
1.835368E+04 1.116642E+37 3.165420E+37 3.357586E+37 2.477317E+37
1.828822E+04 1.130155E+37 3.204033E+37 3.384569E+37 2.461118E+37
1.822323E+04 1.143520E+37 3.242497E+37 3.408487E+37 2.491485E+37
1.815871E+04 1.156909E+37 3.281967E+37 3.441822E+37 2.531786E+37
1.809463E+04 1.170551E+37 3.321077E+37 3.462885E+37 2.555320E+37
1.803101E+04 1.184250E+37 3.360515E+37 3.500567E+37 2.580649E+37
1.796784E+04 1.198022E+37 3.400716E+37 3.529733E+37 2.608255E+37
1.790510E+04 1.211994E+37 3.441496E+37 3.567700E+37 2.625085E+37
1.784280E+04 1.226301E+37 3.483034E+37 3.619219E+37 2.616211E+37
1.778094E+04 1.241229E+37 3.524539E+37 3.669983E+37 2.676401E+37
1.771950E+04 1.256315E+37 3.566283E+37 3.724381E+37 2.719384E+37
1.765848E+04 1.271462E+37 3.608149E+37 3.789243E+37 2.763518E+37
1.759789E+04 1.287044E+37 3.651962E+37 3.866338E+37 2.803445E+37
1.753771E+04 1.303353E+37 3.695884E+37 3.941771E+37 2.776638E+37
1.747793E+04 1.320299E+37 3.740629E+37 4.010888E+37 2.775789E+37
1.741857E+04 1.337040E+37 3.786921E+37 4.084789E+37 2.801965E+37
1.735960E+04 1.354274E+37 3.833471E+37 4.161126E+37 2.836451E+37
1.730104E+04 1.371738E+37 3.881352E+37 4.240465E+37 2.878041E+37
1.724287E+04 1.390011E+37 3.929399E+37 4.321674E+37 2.915487E+37
1.718508E+04 1.408713E+37 3.977491E+37 4.391193E+37 2.906409E+37
1.712769E+04 1.426971E+37 4.026224E+37 4.463645E+37 2.886096E+37
1.707067E+04 1.445001E+37 4.076030E+37 4.536071E+37 2.895636E+37
1.701404E+04 1.462379E+37 4.124323E+37 4.588044E+37 2.924850E+37
1.695778E+04 1.478445E+37 4.170412E+37 4.629097E+37 2.925614E+37
1.690188E+04 1.493770E+37 4.215571E+37 4.658899E+37 2.886738E+37
1.684636E+04 1.509594E+37 4.261973E+37 4.681449E+37 2.843016E+37
1.679120E+04 1.524774E+37 4.307090E+37 4.705730E+37 2.759403E+37
1.673640E+04 1.538419E+37 4.349763E+37 4.710229E+37 2.587401E+37
1.668196E+04 1.549803E+37 4.389525E+37 4.684470E+37 2.333865E+37
1.662787E+04 1.560443E+37 4.428053E+37 4.636582E+37 1.878991E+37
1.657413E+04 1.570811E+37 4.466229E+37 4.612019E+37 1.495754E+37
1.652073E+04 1.580236E+37 4.505102E+37 4.616947E+37 1.438238E+37
1.646768E+04 1.590839E+37 4.544713E+37 4.617466E+37 1.760682E+37
1.641497E+04 1.601563E+37 4.585119E+37 4.603333E+37 2.401107E+37
1.636260E+04 1.612441E+37 4.627192E+37 4.596457E+37 3.080027E+37
1.631055E+04 1.624394E+37 4.670554E+37 4.613766E+37 3.449703E+37
1.625884E+04 1.636887E+37 4.715277E+37 4.688110E+37 3.430140E+37
1.620746E+04 1.650046E+37 4.760752E+37 4.807159E+37 3.496165E+37
1.615639E+04 1.664041E+37 4.815105E+37 4.949360E+37 3.583994E+37
1.610565E+04 1.678367E+37 4.870447E+37 5.084265E+37 3.644878E+37
1.605523E+04 1.693643E+37 4.923982E+37 5.206525E+37 3.639446E+37
1.600512E+04 1.709196E+37 4.977868E+37 5.328972E+37 3.581251E+37
1.595533E+04 1.731901E+37 5.038091E+37 5.443614E+37 3.445800E+37
1.590584E+04 1.754309E+37 5.106777E+37 5.544340E+37 3.192601E+37
1.585666E+04 1.775909E+37 5.178753E+37 5.640333E+37 2.912090E+37
1.580778E+04 1.797217E+37 5.247527E+37 5.730115E+37 2.895503E+37
1.575920E+04 1.822360E+37 5.313675E+37 5.805332E+37 3.365790E+37
1.571092E+04 1.853379E+37 5.376924E+37 5.878943E+37 3.816930E+37
1.566293E+04 1.885750E+37 5.438805E+37 5.940771E+37 4.056285E+37
1.561524E+04 1.915561E+37 5.499866E+37 6.014882E+37 4.356010E+37
1.556784E+04 1.942878E+37 5.559863E+37 6.077241E+37 4.441501E+37
1.552072E+04 1.968531E+37 5.619444E+37 6.151124E+37 4.538160E+37
1.547389E+04 1.992959E+37 5.678449E+37 6.225354E+37 4.608970E+37
1.542734E+04 2.016358E+37 5.737309E+37 6.308248E+37 4.663748E+37
1.538107E+04 2.039223E+37 5.796418E+37 6.386894E+37 4.726695E+37
1.533507E+04 2.061536E+37 5.855947E+37 6.456383E+37 4.763421E+37
1.528935E+04 2.083435E+37 5.915957E+37 6.525564E+37 4.826431E+37
1.524390E+04 2.105271E+37 5.975725E+37 6.594980E+37 4.901157E+37
1.519872E+04 2.127166E+37 6.036837E+37 6.655741E+37 4.925561E+37
1.515381E+04 2.148920E+37 6.097483E+37 6.718036E+37 4.989346E+37
1.510916E+04 2.170896E+37 6.158654E+37 6.790364E+37 5.038672E+37
1.506478E+04 2.192804E+37 6.221331E+37 6.865416E+37 5.107142E+37
1.502065E+04 2.214824E+37 6.284413E+37 6.944854E+37 5.181203E+37
1.497679E+04 2.237368E+37 6.347758E+37 7.026683E+37 5.242511E+37
1.493317E+04 2.260024E+37 6.411549E+37 7.108466E+37 5.310800E+37
1.488982E+04 2.282846E+37 6.476449E+37 7.182754E+37 5.387555E+37
1.484671E+04 2.305769E+37 6.541168E+37 7.259612E+37 5.447546E+37
1.480385E+04 2.329002E+37 6.606657E+37 7.348938E+37 5.474356E+37
1.476124E+04 2.352254E+37 6.672843E+37 7.435749E+37 5.466366E+37
1.471887E+04 2.375835E+37 6.740334E+37 7.528459E+37 5.508031E+37
1.467674E+04 2.399783E+37 6.807242E+37 7.621097E+37 5.561424E+37
1.463486E+04 2.423958E+37 6.874024E+37 7.714154E+37 5.599946E+37
1.459321E+04 2.447792E+37 6.940504E+37 7.812145E+37 5.589232E+37
1.455180E+04 2.471662E+37 7.007010E+37 7.900022E+37 5.615236E+37
1.451063E+04 2.495198E+37 7.073185E+37 7.988976E+37 5.670282E+37
1.446969E+04 2.518627E+37 7.140741E+37 8.081672E+37 5.785943E+37
1.442897E+04 2.542205E+37 7.208620E+37 8.171748E+37 5.916599E+37
1.438849E+04 2.566210E+37 7.276698E+37 8.251525E+37 5.969682E+37
1.434823E+04 2.590364E+37 7.345079E+37 8.326509E+37 6.079376E+37
1.430820E+04 2.614231E+37 7.413746E+37 8.396034E+37 6.132727E+37
1.426839E+04 2.638166E+37 7.482056E+37 8.445617E+37 6.186941E+37
1.422880E+04 2.662091E+37 7.551162E+37 8.491878E+37 6.270220E+37
1.418943E+04 2.686388E+37 7.620758E+37 8.532116E+37 6.295619E+37
1.415028E+04 2.710844E+37 7.690446E+37 8.581378E+37 6.301981E+37
1.411134E+04 2.735488E+37 7.760985E+37 8.634849E+37 6.328643E+37
1.407261E+04 2.760226E+37 7.832255E+37 8.701260E+37 6.392258E+37
1.403410E+04 2.785240E+37 7.902938E+37 8.761716E+37 6.411337E+37
1.399580E+04 2.810413E+37 7.974426E+37 8.821979E+37 6.452230E+37
1.395771E+04 2.835541E+37 8.046970E+37 8.904579E+37 6.481269E+37
1.391982E+04 2.860757E+37 8.119629E+37 9.012841E+37 6.537847E+37
1.388214E+04 2.886558E+37 8.192717E+37 9.133012E+37 6.623682E+37
1.384466E+04 2.912338E+37 8.264536E+37 9.234869E+37 6.743444E+37
1.380739E+04 2.938118E+37 8.339393E+37 9.320245E+37 6.825880E+37
1.377031E+04 2.963656E+37 8.413586E+37 9.415932E+37 6.870124E+37
1.373343E+04 2.990043E+37 8.487679E+37 9.508582E+37 6.923125E+37
1.369675E+04 3.016211E+37 8.563479E+37 9.588078E+37 6.983419E+37
1.366027E+04 3.042473E+37 8.640146E+37 9.673341E+37 7.011850E+37
1.362398E+04 3.069315E+37 8.719049E+37 9.760533E+37 6.982962E+37
1.358788E+04 3.096343E+37 8.800310E+37 9.845897E+37 6.930386E+37
1.355197E+04 3.122813E+37 8.879082E+37 9.928316E+37 6.940504E+37
1.351625E+04 3.148984E+37 8.955338E+37 1.000294E+38 6.957420E+37
1.348072E+04 3.174679E+37 9.030860E+37 1.007600E+38 6.947579E+37
1.344538E+04 3.200914E+37 9.106447E+37 1.012786E+38 6.971561E+37
1.341022E+04 3.228435E+37 9.183337E+37 1.017387E+38 6.951366E+37
1.337524E+04 3.255689E+37 9.260331E+37 1.021734E+38 6.954327E+37
1.334045E+04 3.282962E+37 9.337887E+37 1.024461E+38 6.896715E+37
1.330583E+04 3.310264E+37 9.416873E+37 1.028394E+38 6.822271E+37
1.327140E+04 3.337726E+37 9.495543E+37 1.032997E+38 6.683014E+37
1.323714E+04 3.365163E+37 9.575793E+37 1.036472E+38 6.559434E+37
1.320306E+04 3.392544E+37 9.654978E+37 1.042815E+38 6.566009E+37
1.316916E+04 3.420225E+37 9.732883E+37 1.053525E+38 6.928174E+37
1.313543E+04 3.447670E+37 9.813251E+37 1.067203E+38 7.380678E+37
1.310187E+04 3.475388E+37 9.893315E+37 1.079801E+38 7.484431E+37
1.306848E+04 3.503804E+37 9.974157E+37 1.093326E+38 7.532465E+37
1.303526E+04 3.532176E+37 1.005743E+38 1.107388E+38 7.624936E+37
1.300221E+04 3.560917E+37 1.014056E+38 1.123258E+38 7.735361E+37
1.296933E+04 3.590314E+37 1.022586E+38 1.136806E+38 7.831549E+37
1.293661E+04 3.619810E+37 1.031017E+38 1.149246E+38 8.149772E+37
1.290406E+04 3.649909E+37 1.039772E+38 1.163137E+38 8.531215E+37
1.287167E+04 3.679694E+37 1.048907E+38 1.175120E+38 8.640156E+37
1.283944E+04 3.710255E+37 1.058261E+38 1.185765E+38 8.624487E+37
1.280738E+04 3.740499E+37 1.067404E+38 1.196396E+38 8.584666E+37
1.277547E+04 3.771056E+37 1.076646E+38 1.207478E+38 8.580438E+37
1.274372E+04 3.802929E+37 1.085714E+38 1.217915E+38 8.579564E+37
1.271213E+04 3.838456E+37 1.094979E+38 1.228813E+38 8.569275E+37
1.268070E+04 3.875366E+37 1.104250E+38 1.238571E+38 8.528930E+37
1.264942E+04 3.912006E+37 1.113589E+38 1.248687E+38 8.411936E+37
1.261830E+04 3.948199E+37 1.122890E+38 1.260129E+38 8.140183E+37
1.258732E+04 3.983955E+37 1.132166E+38 1.272269E+38 7.875741E+37
1.255650E+04 4.019237E+37 1.141356E+38 1.283759E+38 7.849582E+37
1.252583E+04 4.053986E+37 1.150683E+38 1.295505E+38 8.371913E+37
1.249531E+04 4.088116E+37 1.159844E+38 1.307707E+38 9.130980E+37
1.246494E+04 4.122464E+37 1.168946E+38 1.318688E+38 9.591631E+37
1.243472E+04 4.156171E+37 1.178294E+38 1.330060E+38 1.000929E+38
1.240464E+04 4.189343E+37 1.187730E+38 1.341025E+38 1.029484E+38
1.237471E+04 4.223557E+37 1.197205E+38 1.350558E+38 1.035292E+38
1.234492E+04 4.258267E+37 1.206679E+38 1.359645E+38 1.040300E+38
1.231527E+04 4.293113E+37 1.216277E+38 1.371278E+38 1.035117E+38
1.228577E+04 4.328478E+37 1.226058E+38 1.382986E+38 1.021034E+38
1.225640E+04 4.364508E+37 1.236049E+38 1.395081E+38 9.973595E+37
1.222718E+04 4.401345E+37 1.246005E+38 1.407873E+38 9.629622E+37
1.219810E+04 4.438956E+37 1.256086E+38 1.420548E+38 9.237705E+37
1.216915E+04 4.476513E+37 1.266121E+38 1.435923E+38 9.005092E+37
1.214034E+04 4.514622E+37 1.276237E+38 1.454146E+38 9.112985E+37
1.211167E+04 4.552757E+37 1.286657E+38 1.472561E+38 9.349391E+37
1.208313E+04 4.591060E+37 1.297242E+38 1.489681E+38 9.770494E+37
1.205473E+04 4.629937E+37 1.307791E+38 1.511513E+38 1.035385E+38
1.202646E+04 4.669620E+37 1.318422E+38 1.529648E+38 1.096833E+38
1.199832E+04 4.709007E+37 1.329048E+38 1.546275E+38 1.097045E+38
1.197031E+04 4.748480E+37 1.339715E+38 1.562492E+38 1.094198E+38
1.194244E+04 4.787732E+37 1.350409E+38 1.577715E+38 1.099786E+38
1.191469E+04 4.826970E+37 1.361096E+38 1.592458E+38 1.118786E+38
1.188707E+04 4.865914E+37 1.371676E+38 1.609176E+38 1.150934E+38
1.185958E+04 4.904580E+37 1.382050E+38 1.624396E+38 1.172509E+38
1.183222E+04 4.942132E+37 1.392402E+38 1.639212E+38 1.191204E+38
1.180498E+04 4.977691E+37 1.402629E+38 1.652973E+38 1.215398E+38
1.177787E+04 5.012817E+37 1.412769E+38 1.664929E+38 1.239793E+38
1.175088E+04 5.047653E+37 1.422835E+38 1.677070E+38 1.258920E+38
1.172402E+04 5.081279E+37 1.432722E+38 1.687723E+38 1.279341E+38
1.169727E+04 5.112321E+37 1.442402E+38 1.694769E+38 1.298209E+38
1.167065E+04 5.142328E+37 1.452022E+38 1.700861E+38 1.313364E+38
1.164415E+04 5.172691E+37 1.461574E+38 1.705013E+38 1.327065E+38
1.161778E+04 5.199531E+37 1.470376E+38 1.707106E+38 1.341153E+38
1.159152E+04 5.223518E+37 1.478960E+38 1.705833E+38 1.352643E+38
1.156537E+04 5.246475E+37 1.487306E+38 1.697595E+38 1.363430E+38
1.153935E+04 5.268205E+37 1.495517E+38 1.686220E+38 1.375281E+38
1.151344E+04 5.290085E+37 1.503817E+38 1.672454E+38 1.393225E+38
1.148765E+04 5.310449E+37 1.512231E+38 1.659043E+38 1.404422E+38
1.146197E+04 5.331842E+37 1.520717E+38 1.644994E+38 1.416390E+38
1.143641E+04 5.353909E+37 1.529171E+38 1.634028E+38 1.415585E+38
1.141097E+04 5.376248E+37 1.537917E+38 1.625490E+38 1.414523E+38
1.138563E+04 5.399327E+37 1.546789E+38 1.619867E+38 1.412743E+38
1.136041E+04 5.423704E+37 1.555688E+38 1.618079E+38 1.414919E+38
1.133530E+04 5.449282E+37 1.564918E+38 1.626897E+38 1.410507E+38
1.131030E+04 5.475873E+37 1.574146E+38 1.645029E+38 1.402540E+38
1.128541E+04 5.503581E+37 1.583544E+38 1.672501E+38 1.406703E+38
1.126063E+04 5.530777E+37 1.593534E+38 1.705461E+38 1.419489E+38
1.123596E+04 5.560012E+37 1.604203E+38 1.740320E+38 1.437109E+38
1.121139E+04 5.591641E+37 1.615024E+38 1.775434E+38 1.460711E+38
1.118693E+04 5.621989E+37 1.626016E+38 1.808671E+38 1.477890E+38
1.116258E+04 5.653493E+37 1.636974E+38 1.840371E+38 1.495683E+38
1.113834E+04 5.686735E+37 1.649304E+38 1.869150E+38 1.508772E+38
1.111420E+04 5.723599E+37 1.661644E+38 1.895119E+38 1.509547E+38
1.109016E+04 5.763492E+37 1.673897E+38 1.918125E+38 1.520997E+38
1.106623E+04 5.802985E+37 1.686944E+38 1.937726E+38 1.524701E+38
1.104240E+04 5.842969E+37 1.701513E+38 1.955876E+38 1.518494E+38
1.101868E+04 5.885163E+37 1.716909E+38 1.970525E+38 1.504787E+38
1.099505E+04 5.935922E+37 1.731861E+38 1.986283E+38 1.488980E+38
1.097153E+04 5.985665E+37 1.746137E+38 2.000067E+38 1.499352E+38
1.094811E+04 6.034374E+37 1.759846E+38 2.016467E+38 1.559528E+38
1.092478E+04 6.094513E+37 1.773005E+38 2.034381E+38 1.657615E+38
1.090156E+04 6.160924E+37 1.785785E+38 2.049503E+38 1.701113E+38
1.087843E+04 6.229533E+37 1.798332E+38 2.065513E+38 1.714252E+38
1.085541E+04 6.293823E+37 1.810789E+38 2.079038E+38 1.727477E+38
1.083248E+04 6.354112E+37 1.823187E+38 2.093074E+38 1.739258E+38
1.080964E+04 6.411030E+37 1.835446E+38 2.109454E+38 1.760617E+38
1.078690E+04 6.465373E+37 1.847478E+38 2.125358E+38 1.777505E+38
1.076426E+04 6.516908E+37 1.859672E+38 2.141553E+38 1.788559E+38
1.074172E+04 6.565730E+37 1.871885E+38 2.156718E+38 1.802060E+38
1.071926E+04 6.613265E+37 1.884006E+38 2.171531E+38 1.811310E+38
1.069690E+04 6.660212E+37 1.896169E+38 2.185972E+38 1.825676E+38
1.067464E+04 6.705524E+37 1.908290E+38 2.198363E+38 1.841047E+38
1.065246E+04 6.750182E+37 1.920619E+38 2.209680E+38 1.855713E+38
1.063038E+04 6.794397E+37 1.933238E+38 2.222598E+38 1.869335E+38
1.060839E+04 6.838438E+37 1.945852E+38 2.238249E+38 1.884881E+38
1.058649E+04 6.882434E+37 1.958586E+38 2.255146E+38 1.895357E+38
1.056468E+04 6.926341E+37 1.971310E+38 2.274596E+38 1.906282E+38
1.054296E+04 6.970747E+37 1.984098E+38 2.293945E+38 1.920939E+38
1.052133E+04 7.017067E+37 1.996703E+38 2.314201E+38 1.933802E+38
1.049979E+04 7.064635E+37 2.009446E+38 2.334711E+38 1.949586E+38
1.047834E+04 7.111935E+37 2.022233E+38 2.353203E+38 1.969956E+38
1.045697E+04 7.158915E+37 2.035119E+38 2.370536E+38 1.980552E+38
1.043569E+04 7.206222E+37 2.048207E+38 2.390367E+38 1.989230E+38
1.041450E+04 7.253082E+37 2.061256E+38 2.407593E+38 1.990381E+38
1.039339E+04 7.300740E+37 2.074323E+38 2.423476E+38 2.005451E+38
1.037237E+04 7.348101E+37 2.087806E+38 2.440434E+38 2.016344E+38
1.035143E+04 7.395613E+37 2.101531E+38 2.457923E+38 2.021800E+38
1.033058E+04 7.442347E+37 2.115337E+38 2.473387E+38 2.029517E+38
1.030981E+04 7.489957E+37 2.129048E+38 2.489598E+38 2.038159E+38
1.028912E+04 7.537646E+37 2.142591E+38 2.507172E+38 2.048608E+38
1.026852E+04 7.585573E+37 2.155988E+38 2.525465E+38 2.056625E+38
1.024800E+04 7.635509E+37 2.169369E+38 2.543923E+38 2.064220E+38
1.022756E+04 7.686698E+37 2.182815E+38 2.563981E+38 2.066276E+38
1.020721E+04 7.737070E+37 2.196352E+38 2.582259E+38 2.077999E+38
1.018693E+04 7.787461E+37 2.209966E+38 2.601557E+38 2.093210E+38
1.016673E+04 7.837647E+37 2.223535E+38 2.621057E+38 2.115522E+38
1.014662E+04 7.887925E+37 2.237123E+38 2.639871E+38 2.132973E+38
1.012658E+04 7.938329E+37 2.250897E+38 2.658701E+38 2.145656E+38
1.010662E+04 7.988208E+37 2.264704E+38 2.675096E+38 2.159476E+38
1.008675E+04 8.038099E+37 2.278719E+38 2.692185E+38 2.169769E+38
1.006695E+04 8.088393E+37 2.292731E+38 2.709822E+38 2.175224E+38
1.004722E+04 8.138389E+37 2.306696E+38 2.726519E+38 2.190702E+38
1.002758E+04 8.189153E+37 2.320792E+38 2.744931E+38 2.212661E+38
1.000801E+04 8.239437E+37 2.334904E+38 2.765522E+38 2.226788E+38
9.988513E+03 8.290129E+37 2.349022E+38 2.787060E+38 2.243470E+38
9.969096E+03 8.341012E+37 2.363290E+38 2.809346E+38 2.260301E+38
9.949754E+03 8.391671E+37 2.377614E+38 2.830921E+38 2.273455E+38
9.930487E+03 8.442541E+37 2.391846E+38 2.851762E+38 2.293166E+38
9.911294E+03 8.493684E+37 2.406035E+38 2.870232E+38 2.308204E+38
9.892175E+03 8.544634E+37 2.420286E+38 2.889542E+38 2.325238E+38
9.873130E+03 8.595463E+37 2.434474E+38 2.909922E+38 2.333633E+38
9.854158E+03 8.646587E+37 2.448637E+38 2.927006E+38 2.346970E+38
9.835259E+03 8.697770E+37 2.463028E+38 2.941748E+38 2.364131E+38
9.816433E+03 8.748631E+37 2.477329E+38 2.958042E+38 2.383420E+38
9.797678E+03 8.798847E+37 2.491651E+38 2.975237E+38 2.399192E+38
9.778995E+03 8.848967E+37 2.505719E+38 2.991002E+38 2.408947E+38
9.760383E+03 8.897991E+37 2.519821E+38 3.005236E+38 2.421109E+38
9.741841E+03 8.946428E+37 2.533756E+38 3.020190E+38 2.430384E+38
9.723370E+03 8.995398E+37 2.547957E+38 3.033487E+38 2.442953E+38
9.704969E+03 9.045035E+37 2.562108E+38 3.046568E+38 2.464056E+38
9.686637E+03 9.094762E+37 2.576456E+38 3.059255E+38 2.477849E+38
9.668375E+03 9.145447E+37 2.590738E+38 3.073359E+38 2.489317E+38
9.650181E+03 9.196269E+37 2.605209E+38 3.086711E+38 2.507380E+38
9.632055E+03 9.247216E+37 2.619719E+38 3.101657E+38 2.523865E+38
9.613998E+03 9.298697E+37 2.634272E+38 3.115860E+38 2.539496E+38
9.596008E+03 9.351083E+37 2.648931E+38 3.129848E+38 2.550709E+38
9.578085E+03 9.403214E+37 2.663761E+38 3.144200E+38 2.559755E+38
9.560229E+03 9.455855E+37 2.678707E+38 3.161375E+38 2.554108E+38
9.542440E+03 9.509179E+37 2.693878E+38 3.184281E+38 2.544035E+38
9.524717E+03 9.562550E+37 2.709325E+38 3.212072E+38 2.536070E+38
9.507059E+03 9.616807E+37 2.724629E+38 3.242705E+38 2.531803E+38
9.489467E+03 9.671316E+37 2.740302E+38 3.277237E+38 2.537023E+38
9.471939E+03 9.726614E+37 2.755850E+38 3.314632E+38 2.578416E+38
9.454477E+03 9.781866E+37 2.771303E+38 3.356018E+38 2.644011E+38
9.437078E+03 9.837758E+37 2.786798E+38 3.395449E+38 2.726525E+38
9.419744E+03 9.893151E+37 2.802320E+38 3.432530E+38 2.765476E+38
9.402473E+03 9.948958E+37 2.817594E+38 3.467456E+38 2.789387E+38
9.385265E+03 1.000631E+38 2.833291E+38 3.502696E+38 2.810851E+38
9.368120E+03 1.006549E+38 2.849400E+38 3.535358E+38 2.839744E+38
9.351038E+03 1.012591E+38 2.865987E+38 3.565799E+38 2.863747E+38
9.334018E+03 1.019051E+38 2.882854E+38 3.595829E+38 2.883148E+38
9.317060E+03 1.024528E+38 2.898659E+38 3.614133E+38 2.904128E+38
9.300163E+03 1.029949E+38 2.914307E+38 3.626943E+38 2.921422E+38
9.283327E+03 1.035072E+38 2.929286E+38 3.632010E+38 2.940179E+38
9.266552E+03 1.040000E+38 2.944706E+38 3.633959E+38 2.958991E+38
9.249838E+03 1.045506E+38 2.960920E+38 3.632276E+38 2.972713E+38
9.233184E+03 1.051956E+38 2.977002E+38 3.608577E+38 2.984023E+38
9.216590E+03 1.058916E+38 2.993131E+38 3.576990E+38 2.978061E+38
9.200055E+03 1.066721E+38 3.010978E+38 3.549125E+38 2.974622E+38
9.183580E+03 1.075674E+38 3.029619E+38 3.520570E+38 2.967193E+38
9.167163E+03 1.084574E+38 3.048531E+38 3.499638E+38 2.957493E+38
9.150805E+03 1.094799E+38 3.069548E+38 3.485915E+38 2.935204E+38
