#NVEL: 40
#TIMES[d]: 100 150 200 300 400
#vel_mid[km/s], Edep [erg/s/cm3] ... 
2.500000e+02 2.895976e-06 3.044394e-07 5.700115e-08 4.650092e-09 6.616388e-10
7.500000e+02 2.373197e-06 2.519334e-07 4.743020e-08 3.916838e-09 5.611739e-10
1.250000e+03 1.854623e-06 1.981067e-07 3.779393e-08 3.180559e-09 4.626811e-10
1.750000e+03 1.376551e-06 1.498660e-07 2.901131e-08 2.492812e-09 3.663920e-10
2.250000e+03 9.902913e-07 1.088817e-07 2.135922e-08 1.869831e-09 2.776092e-10
2.750000e+03 6.573167e-07 7.298496e-08 1.435835e-08 1.265441e-09 1.881228e-10
3.250000e+03 4.033668e-07 4.386874e-08 8.481245e-09 7.253886e-10 1.063791e-10
3.750000e+03 2.225259e-07 2.289482e-08 4.161374e-09 3.212200e-10 4.407819e-11
4.250000e+03 1.189924e-07 1.124004e-08 1.825129e-09 1.106843e-10 1.219590e-11
4.750000e+03 7.277177e-08 6.766382e-09 1.065355e-09 5.868070e-11 5.736529e-12
5.250000e+03 4.795133e-08 4.506176e-09 7.100923e-10 3.942878e-11 3.844003e-12
5.750000e+03 3.259491e-08 3.071959e-09 4.876002e-10 2.696207e-11 2.633879e-12
6.250000e+03 2.266700e-08 2.151342e-09 3.409360e-10 1.891778e-11 1.854592e-12
6.750000e+03 1.607752e-08 1.536611e-09 2.436054e-10 1.351351e-11 1.319574e-12
7.250000e+03 1.159135e-08 1.109582e-09 1.759840e-10 9.785348e-12 9.605514e-13
7.750000e+03 8.419237e-09 8.080120e-10 1.283433e-10 7.134056e-12 6.994802e-13
8.250000e+03 6.197673e-09 5.970919e-10 9.513886e-11 5.288946e-12 5.176124e-13
8.750000e+03 4.607701e-09 4.439565e-10 7.048494e-11 3.926249e-12 3.851382e-13
9.250000e+03 3.431175e-09 3.323366e-10 5.298061e-11 2.947364e-12 2.892283e-13
9.750000e+03 2.592650e-09 2.514418e-10 3.990138e-11 2.229912e-12 2.185637e-13
1.025000e+04 1.963133e-09 1.906485e-10 3.023365e-11 1.695947e-12 1.658472e-13
1.075000e+04 1.492314e-09 1.448634e-10 2.313728e-11 1.288843e-12 1.264260e-13
1.125000e+04 1.146244e-09 1.114769e-10 1.778839e-11 9.891697e-13 9.716427e-14
1.175000e+04 8.828050e-10 8.577782e-11 1.369343e-11 7.611357e-13 7.483316e-14
1.225000e+04 6.806859e-10 6.625420e-11 1.058429e-11 5.900621e-13 5.780347e-14
1.275000e+04 5.281770e-10 5.126591e-11 8.195944e-12 4.575861e-13 4.482178e-14
1.325000e+04 4.103717e-10 3.993337e-11 6.376924e-12 3.555070e-13 3.491513e-14
1.375000e+04 3.210399e-10 3.124396e-11 4.991762e-12 2.784088e-13 2.732463e-14
1.425000e+04 2.490917e-10 2.433756e-11 3.888273e-12 2.169119e-13 2.126407e-14
1.475000e+04 1.962007e-10 1.908666e-11 3.047916e-12 1.701180e-13 1.667494e-14
1.525000e+04 1.549006e-10 1.512056e-11 2.413697e-12 1.347794e-13 1.319563e-14
1.575000e+04 1.213447e-10 1.187704e-11 1.902323e-12 1.057285e-13 1.038186e-14
1.625000e+04 9.624369e-11 9.357956e-12 1.495065e-12 8.340543e-14 8.190738e-15
1.675000e+04 7.607071e-11 7.426517e-12 1.187270e-12 6.612162e-14 6.486011e-15
1.725000e+04 6.028192e-11 5.872092e-12 9.390937e-13 5.251681e-14 5.143753e-15
1.775000e+04 4.785026e-11 4.664222e-12 7.469408e-13 4.176940e-14 4.087127e-15
1.825000e+04 3.807972e-11 3.709720e-12 5.935735e-13 3.320071e-14 3.252767e-15
1.875000e+04 3.039023e-11 2.953042e-12 4.737673e-13 2.651486e-14 2.588117e-15
1.925000e+04 2.417099e-11 2.367564e-12 3.770601e-13 2.103680e-14 2.060054e-15
1.975000e+04 1.935729e-11 1.893087e-12 3.020718e-13 1.682208e-14 1.650687e-15
