#NTIMES:           33
#time[d]   Lbol[erg/s]   Edep[erg/s]
 1.00000E-01 7.01455E+38   7.438E+42
 5.00000E-01 2.46604E+38   7.175E+42
 1.00000E+00 3.30370E+37   6.850E+42
 2.00000E+00 8.97429E+38   6.280E+42
 3.00000E+00 1.26474E+40   5.763E+42
 4.00000E+00 6.08135E+40   5.282E+42
 5.00000E+00 2.02768E+41   4.870E+42
 6.00000E+00 4.90908E+41   4.490E+42
 7.00000E+00 8.87156E+41   4.121E+42
 8.00000E+00 1.37088E+42   3.806E+42
 9.00000E+00 1.82810E+42   3.494E+42
 1.00000E+01 2.16770E+42   3.208E+42
 1.20000E+01 2.65461E+42   2.705E+42
 1.40000E+01 2.71644E+42   2.300E+42
 1.60000E+01 2.63027E+42   2.069E+42
 1.80000E+01 2.49459E+42   1.814E+42
 2.00000E+01 2.26986E+42   1.649E+42
 2.20000E+01 1.90546E+42   1.498E+42
 2.40000E+01 1.63682E+42   1.347E+42
 2.60000E+01 1.38038E+42   1.243E+42
 2.80000E+01 1.26474E+42   1.148E+42
 3.00000E+01 1.12720E+42   1.032E+42
 3.50000E+01 9.01571E+41   8.341E+41
 4.00000E+01 7.48170E+41   6.990E+41
 5.00000E+01 5.27230E+41   5.024E+41
 6.00000E+01 3.83707E+41   3.689E+41
 7.00000E+01 2.77332E+41   2.672E+41
 8.00000E+01 2.14289E+41   2.046E+41
 9.00000E+01 1.65196E+41   1.608E+41
 1.00000E+02 1.30017E+41   1.260E+41
 1.10000E+02 1.03276E+41   1.005E+41
 1.20000E+02 8.27942E+40   8.102E+40
 1.30000E+02 6.83912E+40   6.548E+40
