#NTIMES: 191
#time[d] Lbol[erg/s] Edep[erg/s]
2.0186e+00 1.9282e+41 6.4563e+42
2.0562e+00 1.6699e+41 6.4366e+42
2.0945e+00 1.3230e+41 6.4140e+42
2.1335e+00 9.3976e+40 6.3911e+42
2.1732e+00 5.6257e+40 6.3680e+42
2.2136e+00 3.6967e+40 6.3446e+42
2.2548e+00 3.0490e+40 6.3208e+42
2.2968e+00 2.6095e+40 6.2967e+42
2.3396e+00 2.1842e+40 6.2722e+42
2.3831e+00 1.8235e+40 6.2474e+42
2.4275e+00 1.5270e+40 6.2223e+42
2.4727e+00 1.2562e+40 6.1968e+42
2.5187e+00 1.0474e+40 6.1710e+42
2.5656e+00 8.8240e+39 6.1448e+42
2.6134e+00 7.5815e+39 6.1183e+42
2.6620e+00 6.6103e+39 6.0915e+42
2.7116e+00 5.7472e+39 6.0643e+42
2.7620e+00 5.0740e+39 6.0367e+42
2.8134e+00 4.3259e+39 6.0088e+42
2.8658e+00 3.7274e+39 5.9805e+42
2.9192e+00 3.2265e+39 5.9519e+42
2.9735e+00 2.7760e+39 5.9229e+42
3.0289e+00 2.3440e+39 5.8936e+42
3.0853e+00 2.0026e+39 5.8639e+42
3.1427e+00 1.7336e+39 5.8338e+42
3.2012e+00 1.5152e+39 5.8034e+42
3.2608e+00 1.3601e+39 5.7727e+42
3.3215e+00 1.2383e+39 5.7415e+42
3.3833e+00 1.2016e+39 5.7099e+42
3.4463e+00 1.3147e+39 5.6781e+42
3.5104e+00 1.4574e+39 5.6459e+42
3.5758e+00 1.4897e+39 5.6132e+42
3.6424e+00 1.8394e+39 5.5802e+42
3.7102e+00 1.9126e+39 5.5469e+42
3.7792e+00 2.3432e+39 5.5133e+42
3.8496e+00 2.7567e+39 5.4792e+42
3.9212e+00 2.9335e+39 5.4448e+42
3.9942e+00 3.4588e+39 5.4100e+42
4.0686e+00 3.4123e+39 5.3748e+42
4.1443e+00 3.8719e+39 5.3394e+42
4.2215e+00 4.4676e+39 5.3035e+42
4.3001e+00 5.3636e+39 5.2673e+42
4.3801e+00 5.8797e+39 5.2307e+42
4.4617e+00 6.3537e+39 5.1939e+42
4.5447e+00 7.3701e+39 5.1566e+42
4.6293e+00 8.4947e+39 5.1190e+42
4.7155e+00 9.3724e+39 5.0811e+42
4.8033e+00 1.0336e+40 5.0429e+42
4.8927e+00 1.2145e+40 5.0043e+42
4.9838e+00 1.3732e+40 4.9654e+42
5.0765e+00 1.5566e+40 4.9262e+42
5.1711e+00 1.6777e+40 4.8866e+42
5.2673e+00 2.0436e+40 4.8467e+42
5.3654e+00 2.2631e+40 4.8065e+42
5.4652e+00 2.5533e+40 4.7661e+42
5.5670e+00 2.9388e+40 4.7253e+42
5.6706e+00 3.3496e+40 4.6843e+42
5.7762e+00 3.6722e+40 4.6429e+42
5.8837e+00 4.1518e+40 4.6013e+42
5.9932e+00 4.5959e+40 4.5594e+42
6.1048e+00 5.1865e+40 4.5173e+42
6.2184e+00 5.8618e+40 4.4749e+42
6.3342e+00 6.5976e+40 4.4323e+42
6.4521e+00 7.4006e+40 4.3894e+42
6.5722e+00 8.4815e+40 4.3463e+42
6.6946e+00 9.5221e+40 4.3029e+42
6.8192e+00 1.0853e+41 4.2594e+42
6.9461e+00 1.2295e+41 4.2157e+42
7.0754e+00 1.4036e+41 4.1717e+42
7.2072e+00 1.6009e+41 4.1276e+42
7.3413e+00 1.8273e+41 4.0834e+42
7.4780e+00 2.0804e+41 4.0389e+42
7.6172e+00 2.3660e+41 3.9944e+42
7.7590e+00 2.6585e+41 3.9497e+42
7.9034e+00 2.9857e+41 3.9048e+42
8.0506e+00 3.3329e+41 3.8599e+42
8.2004e+00 3.7038e+41 3.8149e+42
8.3531e+00 4.1040e+41 3.7698e+42
8.5086e+00 4.5237e+41 3.7246e+42
8.6670e+00 4.9779e+41 3.6794e+42
8.8283e+00 5.4072e+41 3.6341e+42
8.9927e+00 5.8714e+41 3.5888e+42
9.1601e+00 6.3894e+41 3.5434e+42
9.3306e+00 6.9064e+41 3.4981e+42
9.5043e+00 7.4969e+41 3.4528e+42
9.6812e+00 8.0403e+41 3.4076e+42
9.8614e+00 8.5994e+41 3.3623e+42
1.0045e+01 9.1100e+41 3.3172e+42
1.0232e+01 9.6961e+41 3.2721e+42
1.0422e+01 1.0268e+42 3.2271e+42
1.0616e+01 1.0834e+42 3.1822e+42
1.0814e+01 1.1448e+42 3.1375e+42
1.1015e+01 1.2003e+42 3.0929e+42
1.1220e+01 1.2660e+42 3.0484e+42
1.1429e+01 1.3272e+42 3.0041e+42
1.1642e+01 1.3910e+42 2.9600e+42
1.1859e+01 1.4559e+42 2.9161e+42
1.2080e+01 1.5215e+42 2.8725e+42
1.2304e+01 1.5853e+42 2.8290e+42
1.2534e+01 1.6510e+42 2.7859e+42
1.2767e+01 1.7154e+42 2.7430e+42
1.3005e+01 1.7789e+42 2.7004e+42
1.3247e+01 1.8381e+42 2.6580e+42
1.3493e+01 1.9052e+42 2.6161e+42
1.3744e+01 1.9637e+42 2.5744e+42
1.4000e+01 2.0213e+42 2.5331e+42
1.4261e+01 2.0801e+42 2.4921e+42
1.4526e+01 2.1344e+42 2.4515e+42
1.4797e+01 2.1879e+42 2.4113e+42
1.5072e+01 2.2403e+42 2.3714e+42
1.5353e+01 2.2911e+42 2.3320e+42
1.5639e+01 2.3412e+42 2.2929e+42
1.5930e+01 2.3859e+42 2.2543e+42
1.6226e+01 2.4270e+42 2.2161e+42
1.6528e+01 2.4631e+42 2.1784e+42
1.6836e+01 2.4997e+42 2.1411e+42
1.7149e+01 2.5329e+42 2.1042e+42
1.7469e+01 2.5597e+42 2.0678e+42
1.7794e+01 2.5798e+42 2.0318e+42
1.8125e+01 2.6070e+42 1.9963e+42
1.8462e+01 2.6170e+42 1.9612e+42
1.8806e+01 2.6296e+42 1.9266e+42
1.9156e+01 2.6371e+42 1.8924e+42
1.9513e+01 2.6353e+42 1.8587e+42
1.9876e+01 2.6336e+42 1.8254e+42
2.0246e+01 2.6235e+42 1.7926e+42
2.0623e+01 2.6111e+42 1.7602e+42
2.1007e+01 2.5901e+42 1.7283e+42
2.1398e+01 2.5594e+42 1.6968e+42
2.1796e+01 2.5268e+42 1.6657e+42
2.2202e+01 2.4883e+42 1.6351e+42
2.2615e+01 2.4423e+42 1.6048e+42
2.3036e+01 2.3933e+42 1.5750e+42
2.3465e+01 2.3393e+42 1.5455e+42
2.3902e+01 2.2814e+42 1.5165e+42
2.4347e+01 2.2159e+42 1.4879e+42
2.4800e+01 2.1496e+42 1.4596e+42
2.5262e+01 2.0783e+42 1.4316e+42
2.5732e+01 2.0029e+42 1.4040e+42
2.6211e+01 1.9240e+42 1.3768e+42
2.6699e+01 1.8413e+42 1.3500e+42
2.7196e+01 1.7650e+42 1.3235e+42
2.7702e+01 1.6855e+42 1.2972e+42
2.8218e+01 1.6112e+42 1.2714e+42
2.8743e+01 1.5414e+42 1.2458e+42
2.9278e+01 1.4763e+42 1.2204e+42
2.9823e+01 1.4145e+42 1.1954e+42
3.0379e+01 1.3579e+42 1.1708e+42
3.0944e+01 1.3006e+42 1.1464e+42
3.1520e+01 1.2534e+42 1.1222e+42
3.2107e+01 1.2084e+42 1.0983e+42
3.2705e+01 1.1703e+42 1.0746e+42
3.3313e+01 1.1341e+42 1.0512e+42
3.3934e+01 1.0992e+42 1.0282e+42
3.4565e+01 1.0724e+42 1.0054e+42
3.5209e+01 1.0439e+42 9.8272e+41
3.5864e+01 1.0181e+42 9.6034e+41
3.6532e+01 9.9618e+41 9.3818e+41
3.7212e+01 9.7637e+41 9.1635e+41
3.7905e+01 9.5278e+41 8.9468e+41
3.8610e+01 9.3691e+41 8.7323e+41
3.9329e+01 9.1639e+41 8.5196e+41
4.0061e+01 8.9843e+41 8.3101e+41
4.0807e+01 8.7754e+41 8.1033e+41
4.1566e+01 8.5724e+41 7.8997e+41
4.2340e+01 8.3531e+41 7.6956e+41
4.3128e+01 8.1122e+41 7.4966e+41
4.3931e+01 7.8815e+41 7.2988e+41
4.4749e+01 7.6356e+41 7.1034e+41
4.5582e+01 7.3828e+41 6.9110e+41
4.6431e+01 7.1342e+41 6.7210e+41
4.7295e+01 6.8787e+41 6.5335e+41
4.8175e+01 6.6325e+41 6.3491e+41
4.9072e+01 6.3871e+41 6.1658e+41
4.9986e+01 6.1702e+41 5.9850e+41
5.0916e+01 5.9534e+41 5.8089e+41
5.1864e+01 5.7505e+41 5.6344e+41
5.2830e+01 5.5544e+41 5.4616e+41
5.3813e+01 5.3813e+41 5.2941e+41
5.4815e+01 5.1882e+41 5.1277e+41
5.5835e+01 5.0224e+41 4.9646e+41
5.6875e+01 4.8517e+41 4.8050e+41
5.7933e+01 4.6947e+41 4.6483e+41
5.9012e+01 4.5338e+41 4.4930e+41
6.0110e+01 4.3707e+41 4.3425e+41
6.1229e+01 4.2207e+41 4.1939e+41
6.2369e+01 4.0741e+41 4.0491e+41
6.3530e+01 3.9245e+41 3.9070e+41
6.4713e+01 3.7857e+41 3.7674e+41
6.5917e+01 3.6482e+41 3.6324e+41
6.7145e+01 3.5089e+41 3.5003e+41
