#NTIMES: 4
#NWAVE: 2119
#TIMES[d]: 75.0 100.0 150.0 200.0
#wavelength[Ang] flux_t0[erg/s/Ang] flux_t1[erg/s/Ang] ... flux_tn[erg/s/Ang] 
2.998300e+03  4.00e+37  1.29e+37  1.56e+36  4.06e+35
3.001300e+03  3.86e+37  1.25e+37  1.56e+36  4.04e+35
3.004300e+03  3.70e+37  1.20e+37  1.51e+36  3.97e+35
3.007300e+03  3.54e+37  1.14e+37  1.46e+36  3.88e+35
3.010300e+03  3.41e+37  1.09e+37  1.38e+36  3.71e+35
3.013300e+03  3.29e+37  1.03e+37  1.30e+36  3.54e+35
3.016300e+03  3.14e+37  9.72e+36  1.22e+36  3.39e+35
3.019300e+03  3.00e+37  9.10e+36  1.16e+36  3.27e+35
3.022400e+03  2.81e+37  8.46e+36  1.11e+36  3.18e+35
3.025400e+03  2.61e+37  7.85e+36  1.07e+36  3.15e+35
3.028400e+03  2.45e+37  7.31e+36  1.04e+36  3.12e+35
3.031400e+03  2.31e+37  6.74e+36  1.02e+36  3.11e+35
3.034500e+03  2.19e+37  6.33e+36  9.97e+35  3.12e+35
3.037500e+03  2.10e+37  6.21e+36  9.95e+35  3.18e+35
3.040500e+03  2.04e+37  6.15e+36  1.01e+36  3.24e+35
3.043600e+03  1.99e+37  6.16e+36  1.03e+36  3.32e+35
3.046600e+03  1.96e+37  6.21e+36  1.05e+36  3.37e+35
3.049700e+03  1.91e+37  6.31e+36  1.08e+36  3.39e+35
3.052700e+03  1.84e+37  6.55e+36  1.15e+36  3.53e+35
3.055800e+03  1.73e+37  6.71e+36  1.23e+36  3.75e+35
3.058800e+03  1.58e+37  6.87e+36  1.34e+36  4.23e+35
3.061900e+03  1.37e+37  6.93e+36  1.45e+36  4.82e+35
3.065000e+03  1.14e+37  6.97e+36  1.56e+36  5.55e+35
3.068000e+03  9.19e+36  7.10e+36  1.65e+36  6.30e+35
3.071100e+03  7.27e+36  7.26e+36  1.75e+36  7.05e+35
3.074200e+03  5.55e+36  7.41e+36  1.86e+36  7.78e+35
3.077200e+03  4.16e+36  7.56e+36  1.96e+36  8.42e+35
3.080300e+03  3.07e+36  7.64e+36  2.04e+36  8.93e+35
3.083400e+03  2.44e+36  7.55e+36  2.10e+36  9.31e+35
3.086500e+03  2.11e+36  7.37e+36  2.14e+36  9.43e+35
3.089600e+03  2.07e+36  7.04e+36  2.16e+36  9.32e+35
3.092700e+03  2.20e+36  6.60e+36  2.16e+36  9.08e+35
3.095700e+03  2.44e+36  6.06e+36  2.14e+36  8.81e+35
3.098800e+03  2.75e+36  5.37e+36  2.09e+36  8.45e+35
3.101900e+03  3.10e+36  4.74e+36  2.02e+36  8.10e+35
3.105000e+03  3.45e+36  4.09e+36  1.90e+36  7.66e+35
3.108100e+03  3.80e+36  3.55e+36  1.76e+36  7.19e+35
3.111300e+03  4.18e+36  3.16e+36  1.59e+36  6.59e+35
3.114400e+03  4.68e+36  2.89e+36  1.45e+36  5.97e+35
3.117500e+03  5.31e+36  2.76e+36  1.34e+36  5.38e+35
3.120600e+03  5.86e+36  2.66e+36  1.23e+36  4.83e+35
3.123700e+03  6.63e+36  2.69e+36  1.13e+36  4.32e+35
3.126800e+03  7.66e+36  2.81e+36  1.06e+36  3.90e+35
3.130000e+03  8.45e+36  2.94e+36  1.00e+36  3.50e+35
3.133100e+03  9.23e+36  3.04e+36  9.40e+35  3.17e+35
3.136200e+03  1.00e+37  3.20e+36  8.89e+35  2.92e+35
3.139400e+03  1.15e+37  3.64e+36  8.78e+35  2.74e+35
3.142500e+03  1.42e+37  4.69e+36  9.74e+35  2.74e+35
3.145700e+03  1.76e+37  6.10e+36  1.15e+36  2.89e+35
3.148800e+03  2.15e+37  7.64e+36  1.34e+36  3.19e+35
3.151900e+03  2.51e+37  9.18e+36  1.54e+36  3.52e+35
3.155100e+03  2.89e+37  1.06e+37  1.72e+36  3.81e+35
3.158300e+03  3.29e+37  1.22e+37  1.93e+36  4.21e+35
3.161400e+03  3.69e+37  1.39e+37  2.16e+36  4.64e+35
3.164600e+03  4.01e+37  1.50e+37  2.35e+36  5.02e+35
3.167700e+03  4.26e+37  1.59e+37  2.48e+36  5.29e+35
3.170900e+03  4.38e+37  1.63e+37  2.54e+36  5.45e+35
3.174100e+03  4.36e+37  1.61e+37  2.54e+36  5.42e+35
3.177200e+03  4.24e+37  1.55e+37  2.45e+36  5.27e+35
3.180400e+03  4.04e+37  1.46e+37  2.33e+36  5.01e+35
3.183600e+03  3.80e+37  1.37e+37  2.23e+36  4.74e+35
3.186800e+03  3.58e+37  1.30e+37  2.19e+36  4.61e+35
3.190000e+03  3.32e+37  1.20e+37  2.13e+36  4.60e+35
3.193200e+03  2.99e+37  1.09e+37  2.04e+36  4.64e+35
3.196400e+03  2.66e+37  9.66e+36  1.92e+36  4.69e+35
3.199600e+03  2.43e+37  8.62e+36  1.82e+36  4.76e+35
3.202800e+03  2.26e+37  8.01e+36  1.75e+36  4.91e+35
3.206000e+03  2.17e+37  7.62e+36  1.73e+36  5.10e+35
3.209200e+03  2.09e+37  7.30e+36  1.71e+36  5.28e+35
3.212400e+03  2.05e+37  7.17e+36  1.68e+36  5.40e+35
3.215600e+03  2.02e+37  7.04e+36  1.65e+36  5.43e+35
3.218800e+03  2.01e+37  6.94e+36  1.61e+36  5.36e+35
3.222000e+03  2.03e+37  6.90e+36  1.55e+36  5.21e+35
3.225200e+03  2.03e+37  6.91e+36  1.49e+36  4.99e+35
3.228500e+03  2.02e+37  6.95e+36  1.45e+36  4.78e+35
3.231700e+03  2.05e+37  7.13e+36  1.43e+36  4.65e+35
3.234900e+03  2.05e+37  7.20e+36  1.41e+36  4.58e+35
3.238200e+03  2.03e+37  7.27e+36  1.41e+36  4.58e+35
3.241400e+03  2.02e+37  7.18e+36  1.39e+36  4.52e+35
3.244600e+03  2.01e+37  7.20e+36  1.37e+36  4.44e+35
3.247900e+03  2.02e+37  7.34e+36  1.37e+36  4.37e+35
3.251100e+03  2.05e+37  7.56e+36  1.40e+36  4.41e+35
3.254400e+03  2.09e+37  7.90e+36  1.46e+36  4.51e+35
3.257600e+03  2.14e+37  8.30e+36  1.52e+36  4.63e+35
3.260900e+03  2.21e+37  8.64e+36  1.59e+36  4.80e+35
3.264200e+03  2.27e+37  9.01e+36  1.69e+36  5.08e+35
3.267400e+03  2.30e+37  9.45e+36  1.80e+36  5.47e+35
3.270700e+03  2.33e+37  9.79e+36  1.95e+36  5.95e+35
3.274000e+03  2.36e+37  1.01e+37  2.09e+36  6.57e+35
3.277200e+03  2.39e+37  1.02e+37  2.22e+36  7.25e+35
3.280500e+03  2.37e+37  1.02e+37  2.32e+36  7.84e+35
3.283800e+03  2.33e+37  1.01e+37  2.39e+36  8.37e+35
3.287100e+03  2.30e+37  9.99e+36  2.42e+36  8.75e+35
3.290400e+03  2.27e+37  9.95e+36  2.43e+36  8.95e+35
3.293700e+03  2.26e+37  9.89e+36  2.44e+36  9.04e+35
3.296900e+03  2.23e+37  9.87e+36  2.43e+36  9.05e+35
3.300200e+03  2.22e+37  9.90e+36  2.39e+36  8.99e+35
3.303500e+03  2.23e+37  9.99e+36  2.35e+36  8.85e+35
3.306800e+03  2.24e+37  9.98e+36  2.31e+36  8.64e+35
3.310200e+03  2.23e+37  1.00e+37  2.26e+36  8.42e+35
3.313500e+03  2.23e+37  1.01e+37  2.21e+36  8.18e+35
3.316800e+03  2.24e+37  9.99e+36  2.16e+36  7.97e+35
3.320100e+03  2.24e+37  9.91e+36  2.12e+36  7.83e+35
3.323400e+03  2.24e+37  9.65e+36  2.07e+36  7.70e+35
3.326700e+03  2.22e+37  9.50e+36  2.02e+36  7.53e+35
3.330100e+03  2.21e+37  9.45e+36  1.99e+36  7.42e+35
3.333400e+03  2.23e+37  9.44e+36  1.96e+36  7.33e+35
3.336700e+03  2.22e+37  9.39e+36  1.95e+36  7.18e+35
3.340100e+03  2.20e+37  9.21e+36  1.92e+36  7.03e+35
3.343400e+03  2.14e+37  8.98e+36  1.87e+36  6.82e+35
3.346800e+03  2.06e+37  8.64e+36  1.79e+36  6.53e+35
3.350100e+03  1.97e+37  8.17e+36  1.68e+36  6.12e+35
3.353400e+03  1.84e+37  7.52e+36  1.54e+36  5.60e+35
3.356800e+03  1.73e+37  6.96e+36  1.37e+36  4.98e+35
3.360200e+03  1.65e+37  6.51e+36  1.21e+36  4.31e+35
3.363500e+03  1.59e+37  6.11e+36  1.10e+36  3.86e+35
3.366900e+03  1.53e+37  5.78e+36  1.04e+36  3.49e+35
3.370200e+03  1.49e+37  5.52e+36  1.00e+36  3.33e+35
3.373600e+03  1.48e+37  5.48e+36  9.95e+35  3.30e+35
3.377000e+03  1.49e+37  5.52e+36  1.01e+36  3.37e+35
3.380400e+03  1.52e+37  5.62e+36  1.03e+36  3.49e+35
3.383700e+03  1.51e+37  5.66e+36  1.05e+36  3.59e+35
3.387100e+03  1.51e+37  5.62e+36  1.05e+36  3.61e+35
3.390500e+03  1.50e+37  5.58e+36  1.05e+36  3.60e+35
3.393900e+03  1.47e+37  5.62e+36  1.06e+36  3.57e+35
3.397300e+03  1.46e+37  5.62e+36  1.07e+36  3.58e+35
3.400700e+03  1.44e+37  5.59e+36  1.09e+36  3.60e+35
3.404100e+03  1.47e+37  5.73e+36  1.15e+36  3.69e+35
3.407500e+03  1.50e+37  5.97e+36  1.22e+36  3.89e+35
3.410900e+03  1.54e+37  6.22e+36  1.33e+36  4.22e+35
3.414300e+03  1.56e+37  6.46e+36  1.44e+36  4.57e+35
3.417700e+03  1.57e+37  6.61e+36  1.53e+36  4.93e+35
3.421200e+03  1.57e+37  6.69e+36  1.60e+36  5.18e+35
3.424600e+03  1.56e+37  6.64e+36  1.63e+36  5.32e+35
3.428000e+03  1.50e+37  6.42e+36  1.61e+36  5.33e+35
3.431400e+03  1.42e+37  6.14e+36  1.58e+36  5.26e+35
3.434900e+03  1.38e+37  5.87e+36  1.52e+36  5.04e+35
3.438300e+03  1.35e+37  5.74e+36  1.46e+36  4.80e+35
3.441700e+03  1.34e+37  5.70e+36  1.42e+36  4.59e+35
3.445200e+03  1.35e+37  5.68e+36  1.38e+36  4.40e+35
3.448600e+03  1.41e+37  5.79e+36  1.35e+36  4.24e+35
3.452100e+03  1.49e+37  6.02e+36  1.37e+36  4.20e+35
3.455500e+03  1.60e+37  6.43e+36  1.40e+36  4.26e+35
3.459000e+03  1.72e+37  6.83e+36  1.44e+36  4.37e+35
3.462400e+03  1.81e+37  7.31e+36  1.51e+36  4.51e+35
3.465900e+03  1.89e+37  7.77e+36  1.57e+36  4.56e+35
3.469400e+03  1.94e+37  8.08e+36  1.65e+36  4.62e+35
3.472800e+03  1.96e+37  8.24e+36  1.70e+36  4.68e+35
3.476300e+03  1.96e+37  8.28e+36  1.77e+36  4.84e+35
3.479800e+03  1.99e+37  8.50e+36  1.86e+36  5.23e+35
3.483300e+03  2.04e+37  8.87e+36  2.00e+36  5.72e+35
3.486700e+03  2.16e+37  9.61e+36  2.25e+36  6.66e+35
3.490200e+03  2.35e+37  1.04e+37  2.60e+36  7.97e+35
3.493700e+03  2.60e+37  1.17e+37  3.04e+36  9.74e+35
3.497200e+03  2.88e+37  1.31e+37  3.51e+36  1.18e+36
3.500700e+03  3.16e+37  1.45e+37  3.95e+36  1.38e+36
3.504200e+03  3.41e+37  1.58e+37  4.33e+36  1.56e+36
3.507700e+03  3.56e+37  1.66e+37  4.58e+36  1.69e+36
3.511200e+03  3.59e+37  1.70e+37  4.69e+36  1.74e+36
3.514700e+03  3.53e+37  1.67e+37  4.62e+36  1.72e+36
3.518300e+03  3.36e+37  1.60e+37  4.38e+36  1.63e+36
3.521800e+03  3.14e+37  1.49e+37  3.99e+36  1.47e+36
3.525300e+03  2.87e+37  1.35e+37  3.55e+36  1.28e+36
3.528800e+03  2.59e+37  1.22e+37  3.08e+36  1.07e+36
3.532300e+03  2.40e+37  1.13e+37  2.80e+36  9.18e+35
3.535900e+03  2.35e+37  1.11e+37  2.76e+36  8.56e+35
3.539400e+03  2.28e+37  1.06e+37  2.67e+36  7.92e+35
3.543000e+03  2.15e+37  1.01e+37  2.56e+36  7.46e+35
3.546500e+03  1.97e+37  9.34e+36  2.38e+36  6.97e+35
3.550000e+03  1.76e+37  8.38e+36  2.16e+36  6.35e+35
3.553600e+03  1.50e+37  7.16e+36  1.89e+36  5.65e+35
3.557100e+03  1.19e+37  5.66e+36  1.57e+36  4.78e+35
3.560700e+03  8.69e+36  4.19e+36  1.20e+36  3.75e+35
3.564300e+03  5.90e+36  2.78e+36  8.22e+35  2.69e+35
3.567800e+03  3.30e+36  1.54e+36  4.52e+35  1.52e+35
3.571400e+03  1.26e+36  5.28e+35  1.45e+35  4.22e+34
3.575000e+03 -2.29e+35 -2.29e+35 -6.72e+34 -3.55e+34
3.578500e+03 -8.85e+35 -5.18e+35 -1.63e+35 -6.63e+34
3.582100e+03 -3.26e+35 -2.06e+35 -5.28e+34 -3.50e+34
3.585700e+03  7.12e+35  3.04e+35  9.08e+34  1.28e+34
3.589300e+03  8.54e+35  3.73e+35  9.77e+34  1.34e+34
3.592900e+03  8.98e+35  4.02e+35  1.01e+35  1.44e+34
3.596500e+03  9.47e+35  4.32e+35  1.06e+35  1.50e+34
3.600100e+03  9.86e+35  4.66e+35  1.12e+35  1.53e+34
3.603700e+03  1.02e+36  4.90e+35  1.18e+35  1.54e+34
3.607300e+03  1.06e+36  5.19e+35  1.24e+35  1.59e+34
3.610900e+03  1.13e+36  5.45e+35  1.28e+35  1.62e+34
3.614500e+03  1.19e+36  5.88e+35  1.33e+35  1.69e+34
3.618100e+03  1.28e+36  6.10e+35  1.40e+35  1.70e+34
3.621700e+03  1.37e+36  6.53e+35  1.45e+35  1.77e+34
3.625300e+03  1.45e+36  6.88e+35  1.46e+35  1.81e+34
3.629000e+03  1.53e+36  7.23e+35  1.45e+35  1.89e+34
3.632600e+03  1.60e+36  7.66e+35  1.45e+35  1.92e+34
3.636200e+03  1.65e+36  8.14e+35  1.45e+35  1.92e+34
3.639900e+03  1.70e+36  8.69e+35  1.43e+35  1.89e+34
3.643500e+03  1.76e+36  9.14e+35  1.44e+35  1.92e+34
3.647200e+03  1.81e+36  9.63e+35  1.43e+35  1.90e+34
3.650800e+03  1.86e+36  1.02e+36  1.43e+35  1.87e+34
3.654400e+03  1.88e+36  1.07e+36  1.44e+35  1.87e+34
3.658100e+03  1.91e+36  1.12e+36  1.44e+35  1.86e+34
3.661800e+03  1.92e+36  1.17e+36  1.43e+35  1.81e+34
3.665400e+03  1.95e+36  1.23e+36  1.42e+35  1.79e+34
3.669100e+03  2.01e+36  1.27e+36  1.44e+35  1.77e+34
3.672800e+03  2.03e+36  1.34e+36  1.45e+35  1.78e+34
3.676400e+03  2.07e+36  1.39e+36  1.44e+35  1.79e+34
3.680100e+03  2.10e+36  1.45e+36  1.45e+35  1.81e+34
3.683800e+03  2.13e+36  1.51e+36  1.46e+35  1.81e+34
3.687500e+03  2.13e+36  1.57e+36  1.46e+35  1.79e+34
3.691200e+03  2.15e+36  1.62e+36  1.43e+35  1.80e+34
3.694900e+03  2.20e+36  1.68e+36  1.45e+35  1.78e+34
3.698500e+03  2.28e+36  1.74e+36  1.42e+35  1.72e+34
3.702200e+03  2.34e+36  1.79e+36  1.42e+35  1.70e+34
3.705900e+03  2.41e+36  1.85e+36  1.39e+35  1.69e+34
3.709700e+03  2.47e+36  1.89e+36  1.36e+35  1.66e+34
3.713400e+03  2.56e+36  1.93e+36  1.35e+35  1.63e+34
3.717100e+03  2.71e+36  1.97e+36  1.33e+35  1.62e+34
3.720800e+03  2.87e+36  1.99e+36  1.34e+35  1.60e+34
3.724500e+03  3.04e+36  2.03e+36  1.35e+35  1.60e+34
3.728200e+03  3.25e+36  2.06e+36  1.35e+35  1.62e+34
3.732000e+03  3.50e+36  2.10e+36  1.36e+35  1.60e+34
3.735700e+03  3.73e+36  2.14e+36  1.37e+35  1.61e+34
3.739400e+03  3.97e+36  2.20e+36  1.38e+35  1.59e+34
3.743200e+03  4.21e+36  2.26e+36  1.37e+35  1.60e+34
3.746900e+03  4.46e+36  2.32e+36  1.36e+35  1.58e+34
3.750700e+03  4.83e+36  2.40e+36  1.37e+35  1.56e+34
3.754400e+03  5.16e+36  2.47e+36  1.36e+35  1.58e+34
3.758200e+03  5.50e+36  2.58e+36  1.35e+35  1.56e+34
3.761900e+03  5.83e+36  2.67e+36  1.34e+35  1.58e+34
3.765700e+03  6.11e+36  2.79e+36  1.36e+35  1.59e+34
3.769500e+03  6.47e+36  2.90e+36  1.34e+35  1.55e+34
3.773200e+03  6.83e+36  3.02e+36  1.36e+35  1.54e+34
3.777000e+03  7.26e+36  3.13e+36  1.34e+35  1.53e+34
3.780800e+03  7.63e+36  3.24e+36  1.33e+35  1.52e+34
3.784600e+03  8.01e+36  3.34e+36  1.34e+35  1.50e+34
3.788300e+03  8.31e+36  3.43e+36  1.31e+35  1.49e+34
3.792100e+03  8.51e+36  3.51e+36  1.31e+35  1.43e+34
3.795900e+03  8.71e+36  3.56e+36  1.29e+35  1.39e+34
3.799700e+03  8.88e+36  3.61e+36  1.26e+35  1.36e+34
3.803500e+03  9.12e+36  3.67e+36  1.26e+35  1.33e+34
3.807300e+03  9.26e+36  3.69e+36  1.25e+35  1.32e+34
3.811100e+03  9.40e+36  3.71e+36  1.24e+35  1.34e+34
3.814900e+03  9.49e+36  3.75e+36  1.22e+35  1.36e+34
3.818800e+03  9.56e+36  3.80e+36  1.22e+35  1.35e+34
3.822600e+03  9.73e+36  3.83e+36  1.18e+35  1.35e+34
3.826400e+03  9.94e+36  3.87e+36  1.19e+35  1.36e+34
3.830200e+03  1.02e+37  3.91e+36  1.21e+35  1.37e+34
3.834100e+03  1.06e+37  3.96e+36  1.24e+35  1.36e+34
3.837900e+03  1.10e+37  4.00e+36  1.27e+35  1.40e+34
3.841700e+03  1.13e+37  4.06e+36  1.29e+35  1.38e+34
3.845600e+03  1.18e+37  4.13e+36  1.34e+35  1.36e+34
3.849400e+03  1.23e+37  4.24e+36  1.37e+35  1.33e+34
3.853300e+03  1.28e+37  4.39e+36  1.40e+35  1.31e+34
3.857100e+03  1.33e+37  4.58e+36  1.49e+35  1.29e+34
3.861000e+03  1.38e+37  4.73e+36  1.55e+35  1.29e+34
3.864800e+03  1.42e+37  4.93e+36  1.63e+35  1.27e+34
3.868700e+03  1.46e+37  5.19e+36  1.72e+35  1.27e+34
3.872600e+03  1.49e+37  5.45e+36  1.88e+35  1.28e+34
3.876400e+03  1.52e+37  5.80e+36  2.08e+35  1.33e+34
3.880300e+03  1.59e+37  6.21e+36  2.38e+35  1.37e+34
3.884200e+03  1.68e+37  6.72e+36  2.77e+35  1.40e+34
3.888100e+03  1.80e+37  7.26e+36  3.20e+35  1.53e+34
3.892000e+03  1.96e+37  8.01e+36  3.68e+35  1.48e+34
3.895900e+03  2.18e+37  8.79e+36  4.21e+35  1.13e+34
3.899800e+03  2.49e+37  9.89e+36  4.99e+35  4.31e+33
3.903700e+03  2.95e+37  1.12e+37  6.41e+35  3.87e+33
3.907600e+03  3.52e+37  1.30e+37  8.22e+35  1.38e+34
3.911500e+03  4.17e+37  1.54e+37  1.09e+36  4.07e+34
3.915400e+03  4.90e+37  1.84e+37  1.52e+36  1.04e+35
3.919300e+03  5.65e+37  2.17e+37  2.10e+36  2.16e+35
3.923200e+03  6.39e+37  2.52e+37  2.76e+36  3.78e+35
3.927100e+03  7.08e+37  2.86e+37  3.47e+36  5.68e+35
3.931100e+03  7.70e+37  3.19e+37  4.15e+36  7.62e+35
3.935000e+03  8.20e+37  3.47e+37  4.78e+36  9.49e+35
3.938900e+03  8.59e+37  3.72e+37  5.35e+36  1.12e+36
3.942900e+03  8.86e+37  3.93e+37  5.82e+36  1.26e+36
3.946800e+03  9.07e+37  4.10e+37  6.25e+36  1.36e+36
3.950800e+03  9.18e+37  4.24e+37  6.60e+36  1.45e+36
3.954700e+03  9.33e+37  4.40e+37  6.92e+36  1.50e+36
3.958700e+03  9.53e+37  4.54e+37  7.36e+36  1.55e+36
3.962600e+03  9.71e+37  4.74e+37  7.85e+36  1.61e+36
3.966600e+03  9.89e+37  4.99e+37  8.55e+36  1.70e+36
3.970500e+03  1.00e+38  5.28e+37  9.42e+36  1.82e+36
3.974500e+03  9.99e+37  5.55e+37  1.03e+37  1.96e+36
3.978500e+03  9.89e+37  5.81e+37  1.12e+37  2.08e+36
3.982500e+03  9.74e+37  6.06e+37  1.22e+37  2.17e+36
3.986500e+03  9.55e+37  6.30e+37  1.33e+37  2.20e+36
3.990400e+03  9.41e+37  6.60e+37  1.45e+37  2.18e+36
3.994400e+03  9.40e+37  6.98e+37  1.58e+37  2.10e+36
3.998400e+03  9.48e+37  7.46e+37  1.72e+37  1.99e+36
4.002400e+03  9.86e+37  7.97e+37  1.90e+37  1.89e+36
4.006400e+03  1.04e+38  8.59e+37  2.10e+37  1.84e+36
4.010400e+03  1.11e+38  9.29e+37  2.32e+37  1.84e+36
4.014400e+03  1.21e+38  1.01e+38  2.56e+37  1.94e+36
4.018500e+03  1.31e+38  1.09e+38  2.80e+37  2.09e+36
4.022500e+03  1.41e+38  1.17e+38  3.02e+37  2.31e+36
4.026500e+03  1.50e+38  1.23e+38  3.23e+37  2.57e+36
4.030500e+03  1.56e+38  1.28e+38  3.40e+37  2.80e+36
4.034600e+03  1.61e+38  1.31e+38  3.53e+37  2.99e+36
4.038600e+03  1.63e+38  1.33e+38  3.63e+37  3.13e+36
4.042600e+03  1.62e+38  1.34e+38  3.68e+37  3.18e+36
4.046700e+03  1.59e+38  1.33e+38  3.69e+37  3.13e+36
4.050700e+03  1.54e+38  1.31e+38  3.66e+37  2.98e+36
4.054800e+03  1.48e+38  1.28e+38  3.59e+37  2.77e+36
4.058800e+03  1.41e+38  1.24e+38  3.50e+37  2.52e+36
4.062900e+03  1.33e+38  1.20e+38  3.40e+37  2.27e+36
4.066900e+03  1.25e+38  1.16e+38  3.27e+37  2.01e+36
4.071000e+03  1.16e+38  1.13e+38  3.15e+37  1.76e+36
4.075100e+03  1.07e+38  1.09e+38  3.02e+37  1.54e+36
4.079200e+03  9.67e+37  1.06e+38  2.89e+37  1.36e+36
4.083200e+03  8.68e+37  1.02e+38  2.79e+37  1.22e+36
4.087300e+03  7.66e+37  9.79e+37  2.68e+37  1.11e+36
4.091400e+03  6.73e+37  9.33e+37  2.59e+37  1.06e+36
4.095500e+03  5.88e+37  8.79e+37  2.51e+37  1.03e+36
4.099600e+03  5.11e+37  8.17e+37  2.41e+37  1.04e+36
4.103700e+03  4.54e+37  7.52e+37  2.29e+37  1.05e+36
4.107800e+03  4.13e+37  6.81e+37  2.15e+37  1.09e+36
4.111900e+03  3.86e+37  6.06e+37  1.98e+37  1.15e+36
4.116000e+03  3.72e+37  5.32e+37  1.81e+37  1.21e+36
4.120100e+03  3.66e+37  4.60e+37  1.64e+37  1.28e+36
4.124300e+03  3.69e+37  3.97e+37  1.47e+37  1.34e+36
4.128400e+03  3.73e+37  3.44e+37  1.32e+37  1.40e+36
4.132500e+03  3.77e+37  3.04e+37  1.18e+37  1.46e+36
4.136600e+03  3.83e+37  2.76e+37  1.07e+37  1.52e+36
4.140800e+03  3.91e+37  2.60e+37  9.87e+36  1.60e+36
4.144900e+03  4.07e+37  2.52e+37  9.27e+36  1.68e+36
4.149100e+03  4.19e+37  2.47e+37  8.97e+36  1.78e+36
4.153200e+03  4.35e+37  2.46e+37  8.79e+36  1.88e+36
4.157400e+03  4.51e+37  2.49e+37  8.57e+36  2.04e+36
4.161500e+03  4.69e+37  2.53e+37  8.44e+36  2.19e+36
4.165700e+03  4.86e+37  2.57e+37  8.37e+36  2.34e+36
4.169800e+03  5.02e+37  2.65e+37  8.33e+36  2.50e+36
4.174000e+03  5.16e+37  2.73e+37  8.39e+36  2.68e+36
4.178200e+03  5.39e+37  2.82e+37  8.52e+36  2.87e+36
4.182400e+03  5.66e+37  2.96e+37  8.92e+36  3.12e+36
4.186600e+03  5.88e+37  3.14e+37  9.58e+36  3.40e+36
4.190700e+03  6.12e+37  3.36e+37  1.04e+37  3.76e+36
4.194900e+03  6.39e+37  3.61e+37  1.14e+37  4.18e+36
4.199100e+03  6.63e+37  3.84e+37  1.25e+37  4.61e+36
4.203300e+03  6.81e+37  4.06e+37  1.35e+37  5.06e+36
4.207500e+03  6.94e+37  4.25e+37  1.45e+37  5.51e+36
4.211700e+03  7.11e+37  4.41e+37  1.54e+37  5.92e+36
4.215900e+03  7.24e+37  4.56e+37  1.61e+37  6.28e+36
4.220200e+03  7.36e+37  4.68e+37  1.67e+37  6.57e+36
4.224400e+03  7.40e+37  4.74e+37  1.72e+37  6.79e+36
4.228600e+03  7.41e+37  4.77e+37  1.75e+37  6.96e+36
4.232800e+03  7.41e+37  4.70e+37  1.76e+37  7.08e+36
4.237100e+03  7.44e+37  4.63e+37  1.74e+37  7.13e+36
4.241300e+03  7.39e+37  4.53e+37  1.72e+37  7.15e+36
4.245500e+03  7.30e+37  4.43e+37  1.69e+37  7.12e+36
4.249800e+03  7.21e+37  4.32e+37  1.64e+37  7.06e+36
4.254000e+03  7.12e+37  4.21e+37  1.59e+37  6.95e+36
4.258300e+03  7.07e+37  4.10e+37  1.54e+37  6.78e+36
4.262600e+03  7.10e+37  4.04e+37  1.49e+37  6.61e+36
4.266800e+03  7.20e+37  4.03e+37  1.46e+37  6.43e+36
4.271100e+03  7.34e+37  4.06e+37  1.45e+37  6.25e+36
4.275400e+03  7.38e+37  4.09e+37  1.45e+37  6.11e+36
4.279600e+03  7.34e+37  4.07e+37  1.46e+37  6.08e+36
4.283900e+03  7.20e+37  3.99e+37  1.46e+37  6.07e+36
4.288200e+03  7.03e+37  3.88e+37  1.45e+37  6.05e+36
4.292500e+03  6.81e+37  3.73e+37  1.44e+37  6.05e+36
4.296800e+03  6.53e+37  3.59e+37  1.43e+37  6.07e+36
4.301100e+03  6.18e+37  3.42e+37  1.41e+37  6.11e+36
4.305400e+03  5.79e+37  3.24e+37  1.38e+37  6.15e+36
4.309700e+03  5.41e+37  3.03e+37  1.33e+37  6.11e+36
4.314000e+03  5.05e+37  2.83e+37  1.28e+37  6.01e+36
4.318300e+03  4.78e+37  2.66e+37  1.23e+37  5.86e+36
4.322600e+03  4.63e+37  2.59e+37  1.21e+37  5.65e+36
4.326900e+03  4.48e+37  2.58e+37  1.20e+37  5.42e+36
4.331300e+03  4.34e+37  2.60e+37  1.20e+37  5.24e+36
4.335600e+03  4.16e+37  2.61e+37  1.22e+37  5.14e+36
4.339900e+03  3.99e+37  2.62e+37  1.22e+37  5.05e+36
4.344300e+03  3.80e+37  2.62e+37  1.23e+37  4.98e+36
4.348600e+03  3.71e+37  2.63e+37  1.25e+37  4.94e+36
4.353000e+03  3.71e+37  2.70e+37  1.29e+37  5.02e+36
