#NTIMES: 265
#NSTAGES: 3
#TIMES[d]: 1.074 1.181 1.299 1.429 1.572 1.729 1.902 2.092 2.301 2.531 2.785 3.063 3.369 3.706 4.077 4.485 4.933 5.426 5.969 6.566 7.223 7.945 8.739 9.613 10.575 11.575 12.575 13.575 14.575 15.575 16.575 17.575 18.575 19.575 20.575 21.575 22.575 23.575 24.575 25.575 26.575 27.575 28.575 29.575 30.575 31.575 32.575 33.575 34.575 35.575 36.575 37.575 38.575 39.575 40.575 41.575 42.575 43.575 44.575 45.575 46.575 47.575 48.575 49.575 50.575 51.575 52.575 53.575 54.575 55.575 56.575 57.575 58.575 59.575 60.575 61.575 62.575 63.575 64.575 65.575 66.575 67.575 68.575 69.575 70.575 71.575 72.575 73.575 74.575 75.575 76.575 77.575 78.575 79.575 80.575 81.575 82.575 83.575 84.575 85.575 86.575 87.575 88.575 89.575 90.575 91.575 92.575 93.575 94.575 95.575 96.575 97.575 98.575 99.575 100.575 101.575 102.575 103.575 104.575 105.575 106.575 107.575 108.575 109.575 110.575 111.575 112.575 113.575 114.575 115.575 116.575 117.575 118.575 119.575 120.575 121.575 122.575 123.575 124.575 125.575 126.575 127.575 128.575 129.575 130.575 131.575 132.575 133.575 134.575 135.575 136.575 137.575 138.575 139.575 140.575 141.575 142.575 143.575 144.575 145.575 146.575 147.575 148.575 149.575 150.575 151.575 152.575 153.575 154.575 155.575 156.575 157.575 158.575 159.575 160.575 161.575 162.575 163.575 164.575 165.575 166.575 167.575 168.575 169.575 170.575 171.575 172.575 173.575 174.575 175.575 176.575 177.575 178.575 179.575 180.575 181.575 182.575 183.575 184.575 185.575 186.575 187.575 188.575 189.575 190.575 191.575 192.575 193.575 194.575 195.575 196.575 197.575 198.575 199.575 200.575 201.575 202.575 203.575 204.575 205.575 206.575 207.575 208.575 209.575 210.575 211.575 212.575 213.575 214.575 215.575 216.575 217.575 218.575 219.575 220.575 221.575 222.575 223.575 224.575 225.575 226.575 227.575 228.575 229.575 230.575 231.575 232.575 233.575 234.575 235.575 236.575 237.575 238.575 239.575 240.575 241.575 242.575 243.575 244.575 245.575 246.575 247.575 248.575 249.575 250.575 
#
#TIME: 1.073600
#NVEL: 114
#vel_mid[km/s] Mg0 Mg1 Mg2
4.401e+07 5.236447e-13 2.605821e-05 9.999739e-01
8.862e+07 5.236447e-13 2.605821e-05 9.999739e-01
9.061e+07 5.236447e-13 2.605821e-05 9.999739e-01
9.444e+07 5.236447e-13 2.605821e-05 9.999739e-01
9.991e+07 5.235325e-13 2.605661e-05 9.999739e-01
1.061e+08 5.232105e-13 2.605256e-05 9.999739e-01
1.126e+08 5.223464e-13 2.604570e-05 9.999740e-01
1.194e+08 5.201996e-13 2.604228e-05 9.999740e-01
1.267e+08 5.078328e-13 2.593111e-05 9.999741e-01
1.345e+08 4.546150e-13 2.530487e-05 9.999747e-01
1.427e+08 3.590283e-13 2.387377e-05 9.999761e-01
1.514e+08 2.669318e-13 2.186020e-05 9.999781e-01
1.607e+08 2.007075e-13 1.984353e-05 9.999802e-01
1.705e+08 1.581330e-13 1.833955e-05 9.999817e-01
1.809e+08 1.245605e-13 1.697975e-05 9.999830e-01
1.919e+08 9.539603e-14 1.551567e-05 9.999845e-01
2.037e+08 7.215225e-14 1.409779e-05 9.999859e-01
2.161e+08 5.289474e-14 1.259623e-05 9.999874e-01
2.293e+08 3.659745e-14 1.090675e-05 9.999891e-01
2.433e+08 2.513846e-14 9.395636e-06 9.999906e-01
2.582e+08 1.827278e-14 8.286025e-06 9.999917e-01
2.739e+08 1.432267e-14 7.523544e-06 9.999925e-01
2.907e+08 1.169875e-14 6.904217e-06 9.999931e-01
3.084e+08 9.591203e-15 6.276246e-06 9.999937e-01
3.273e+08 8.034144e-15 5.701499e-06 9.999943e-01
3.472e+08 7.006185e-15 5.237452e-06 9.999948e-01
3.685e+08 6.218973e-15 4.807287e-06 9.999952e-01
3.910e+08 5.335238e-15 4.301219e-06 9.999957e-01
4.148e+08 5.253448e-15 4.147125e-06 9.999959e-01
4.402e+08 5.866494e-15 4.330805e-06 9.999957e-01
4.671e+08 5.434508e-15 4.182450e-06 9.999958e-01
4.956e+08 3.934851e-15 3.580402e-06 9.999964e-01
5.259e+08 2.811234e-15 3.037791e-06 9.999970e-01
5.580e+08 2.295938e-15 2.746624e-06 9.999973e-01
5.921e+08 1.980432e-15 2.536630e-06 9.999975e-01
6.282e+08 1.752834e-15 2.361987e-06 9.999976e-01
6.666e+08 1.652155e-15 2.266061e-06 9.999977e-01
7.074e+08 1.584224e-15 2.183530e-06 9.999978e-01
7.506e+08 1.450383e-15 2.039327e-06 9.999980e-01
7.964e+08 1.384171e-15 1.936088e-06 9.999981e-01
8.451e+08 1.460469e-15 1.927265e-06 9.999981e-01
8.967e+08 1.601287e-15 1.932226e-06 9.999981e-01
9.514e+08 1.869344e-15 1.959662e-06 9.999980e-01
1.010e+09 2.529011e-15 2.084611e-06 9.999979e-01
1.071e+09 3.881348e-15 2.255210e-06 9.999977e-01
1.137e+09 6.816577e-15 2.417264e-06 9.999976e-01
1.206e+09 1.413303e-14 2.533030e-06 9.999975e-01
1.279e+09 3.385291e-14 2.677890e-06 9.999973e-01
1.353e+09 7.868074e-14 2.761678e-06 9.999972e-01
1.419e+09 1.897167e-13 2.792686e-06 9.999972e-01
1.476e+09 5.046565e-13 2.825827e-06 9.999972e-01
1.524e+09 2.553345e-12 4.454828e-06 9.999955e-01
1.565e+09 1.831742e-11 1.236078e-05 9.999876e-01
1.596e+09 1.757203e-10 6.246789e-05 9.999375e-01
1.619e+09 2.223881e-09 5.067066e-04 9.994933e-01
1.635e+09 3.130090e-08 5.263287e-03 9.947367e-01
1.648e+09 4.947860e-07 6.212994e-02 9.378696e-01
1.659e+09 4.674084e-06 3.924831e-01 6.075123e-01
1.669e+09 1.470968e-05 7.880010e-01 2.119843e-01
1.679e+09 2.387078e-05 9.249838e-01 7.499235e-02
1.689e+09 3.184503e-05 9.672502e-01 3.271798e-02
1.700e+09 4.045198e-05 9.841934e-01 1.576618e-02
1.715e+09 5.191757e-05 9.924083e-01 7.539826e-03
1.742e+09 7.720162e-05 9.973828e-01 2.540019e-03
1.789e+09 1.746325e-04 9.994802e-01 3.451873e-04
1.853e+09 4.701616e-04 9.994929e-01 3.692352e-05
1.926e+09 1.144615e-03 9.988507e-01 4.731533e-06
2.003e+09 2.559022e-03 9.974403e-01 6.934779e-07
2.084e+09 5.364617e-03 9.946353e-01 1.177945e-07
2.165e+09 1.080548e-02 9.891945e-01 2.267210e-08
2.245e+09 1.959411e-02 9.804059e-01 4.961837e-09
2.325e+09 3.266356e-02 9.673364e-01 1.222024e-09
2.405e+09 5.067294e-02 9.493271e-01 3.450641e-10
2.487e+09 7.179842e-02 9.282016e-01 1.176069e-10
2.570e+09 9.190813e-02 9.080919e-01 4.835043e-11
2.659e+09 1.099550e-01 8.900450e-01 2.110661e-11
2.764e+09 1.410306e-01 8.589694e-01 6.430427e-12
2.899e+09 2.090737e-01 7.909263e-01 9.293475e-13
3.065e+09 1.366241e-01 8.633759e-01 8.130365e-13
3.252e+09 4.687973e-02 9.531203e-01 1.779493e-12
3.446e+09 9.973487e-03 9.900265e-01 8.760840e-12
3.637e+09 3.076835e-03 9.969232e-01 3.813182e-11
3.815e+09 1.282992e-03 9.987170e-01 1.383161e-10
3.975e+09 8.719993e-04 9.991280e-01 2.261231e-10
4.117e+09 8.553481e-04 9.991447e-01 1.680672e-10
4.247e+09 1.223435e-03 9.987766e-01 5.289942e-11
4.369e+09 2.618454e-03 9.973815e-01 7.545915e-12
4.488e+09 7.261912e-03 9.927381e-01 6.607336e-13
4.608e+09 1.879617e-02 9.812038e-01 6.455189e-14
4.729e+09 1.851009e-02 9.814899e-01 4.639760e-14
4.852e+09 1.495511e-02 9.850449e-01 5.074778e-14
4.975e+09 1.166584e-02 9.883342e-01 5.962036e-14
5.101e+09 8.828961e-03 9.911710e-01 7.430156e-14
5.229e+09 6.590691e-03 9.934093e-01 9.486083e-14
5.360e+09 4.904121e-03 9.950959e-01 1.215020e-13
5.492e+09 3.636928e-03 9.963631e-01 1.564052e-13
5.627e+09 2.694535e-03 9.973055e-01 2.016390e-13
5.762e+09 1.999889e-03 9.980001e-01 2.596738e-13
5.899e+09 1.491529e-03 9.985085e-01 3.326289e-13
6.034e+09 1.119497e-03 9.988805e-01 4.243412e-13
6.168e+09 8.497351e-04 9.991503e-01 5.351334e-13
6.297e+09 6.535234e-04 9.993465e-01 6.676476e-13
6.422e+09 5.107497e-04 9.994893e-01 8.217593e-13
6.539e+09 4.072124e-04 9.995928e-01 9.939805e-13
6.646e+09 3.325952e-04 9.996674e-01 1.176650e-12
6.742e+09 2.781993e-04 9.997218e-01 1.365506e-12
6.826e+09 2.392543e-04 9.997607e-01 1.547434e-12
6.896e+09 2.107132e-04 9.997893e-01 1.721637e-12
6.948e+09 1.908610e-04 9.998091e-01 1.867426e-12
6.976e+09 1.836961e-04 9.998163e-01 1.924486e-12
6.989e+09 1.802176e-04 9.998198e-01 1.953637e-12
6.995e+09 1.788727e-04 9.998211e-01 1.960294e-12
6.998e+09 1.783233e-04 9.998217e-01 1.960978e-12
7.000e+09 1.783214e-04 9.998217e-01 1.955655e-12
#TIME: 1.180960
#NVEL: 114
#vel_mid[km/s] Mg0 Mg1 Mg2
4.401e+07 3.314051e-13 2.022846e-05 9.999798e-01
8.862e+07 4.352255e-13 2.184022e-05 9.999782e-01
9.061e+07 4.216034e-13 2.164753e-05 9.999784e-01
9.444e+07 3.943024e-13 2.124586e-05 9.999788e-01
9.991e+07 3.588834e-13 2.069032e-05 9.999793e-01
1.061e+08 3.565587e-13 2.065280e-05 9.999793e-01
1.126e+08 3.540546e-13 2.061610e-05 9.999794e-01
1.194e+08 3.388949e-13 2.038377e-05 9.999796e-01
1.267e+08 2.969650e-13 1.968174e-05 9.999803e-01
1.345e+08 2.354869e-13 1.854096e-05 9.999815e-01
1.427e+08 1.723675e-13 1.708774e-05 9.999829e-01
1.514e+08 1.392302e-13 1.603234e-05 9.999840e-01
1.607e+08 1.079119e-13 1.468508e-05 9.999853e-01
1.705e+08 7.916606e-14 1.326505e-05 9.999867e-01
1.809e+08 6.210890e-14 1.225747e-05 9.999877e-01
1.919e+08 4.758596e-14 1.119396e-05 9.999888e-01
2.037e+08 3.544577e-14 1.011129e-05 9.999899e-01
2.161e+08 2.594048e-14 9.021215e-06 9.999910e-01
2.293e+08 1.778659e-14 7.780038e-06 9.999922e-01
2.433e+08 1.205601e-14 6.664517e-06 9.999933e-01
2.582e+08 9.140997e-15 5.962026e-06 9.999940e-01
2.739e+08 7.577046e-15 5.521571e-06 9.999945e-01
2.907e+08 6.583796e-15 5.181577e-06 9.999948e-01
3.084e+08 5.814955e-15 4.839400e-06 9.999952e-01
3.273e+08 5.252065e-15 4.516729e-06 9.999955e-01
3.472e+08 4.848426e-15 4.232278e-06 9.999958e-01
3.685e+08 4.561193e-15 3.960988e-06 9.999960e-01
3.910e+08 3.816666e-15 3.508582e-06 9.999965e-01
4.148e+08 3.428655e-15 3.275195e-06 9.999967e-01
4.402e+08 3.560869e-15 3.335801e-06 9.999967e-01
4.671e+08 3.275344e-15 3.213833e-06 9.999968e-01
4.956e+08 2.407327e-15 2.765579e-06 9.999972e-01
5.259e+08 1.763072e-15 2.366629e-06 9.999976e-01
5.580e+08 1.504512e-15 2.172241e-06 9.999978e-01
5.921e+08 1.326947e-15 2.021173e-06 9.999980e-01
6.282e+08 1.191075e-15 1.890497e-06 9.999981e-01
6.666e+08 1.165662e-15 1.836197e-06 9.999982e-01
7.074e+08 1.173784e-15 1.797434e-06 9.999982e-01
7.506e+08 1.101984e-15 1.691028e-06 9.999983e-01
7.964e+08 1.080494e-15 1.617576e-06 9.999984e-01
8.451e+08 1.228171e-15 1.646507e-06 9.999984e-01
8.967e+08 1.480948e-15 1.696301e-06 9.999983e-01
9.514e+08 1.950849e-15 1.776832e-06 9.999982e-01
1.010e+09 3.123515e-15 1.970748e-06 9.999980e-01
1.071e+09 5.929958e-15 2.231992e-06 9.999978e-01
1.137e+09 1.266456e-14 2.462974e-06 9.999975e-01
1.206e+09 2.713168e-14 2.531132e-06 9.999975e-01
1.279e+09 6.416761e-14 2.604361e-06 9.999974e-01
1.353e+09 1.756029e-13 2.733171e-06 9.999973e-01
1.419e+09 5.161727e-13 2.785008e-06 9.999972e-01
1.476e+09 2.018920e-12 3.857638e-06 9.999961e-01
1.524e+09 1.066099e-11 1.019698e-05 9.999898e-01
1.565e+09 8.223042e-11 4.969828e-05 9.999503e-01
1.596e+09 1.431379e-09 4.573930e-04 9.995426e-01
1.619e+09 1.237280e-08 2.862324e-03 9.971377e-01
1.635e+09 7.075598e-08 1.317308e-02 9.868268e-01
1.648e+09 6.735461e-07 9.603523e-02 9.039641e-01
1.659e+09 4.572863e-06 4.372014e-01 5.627940e-01
1.669e+09 1.080445e-05 7.406877e-01 2.593014e-01
1.679e+09 1.906749e-05 9.108854e-01 8.909553e-02
1.689e+09 2.748811e-05 9.667592e-01 3.321334e-02
1.700e+09 3.837889e-05 9.871046e-01 1.285703e-02
1.715e+09 7.284083e-05 9.972265e-01 2.700707e-03
1.742e+09 2.830167e-04 9.995710e-01 1.459356e-04
1.789e+09 1.068392e-03 9.989240e-01 7.614260e-06
1.853e+09 1.701328e-03 9.982964e-01 2.285620e-06
1.926e+09 3.006216e-03 9.969932e-01 5.536002e-07
2.003e+09 1.515843e-02 9.848416e-01 1.565742e-08
2.084e+09 2.056503e-02 9.794350e-01 5.992535e-09
2.165e+09 5.722084e-02 9.427792e-01 4.816451e-10
2.245e+09 6.664935e-03 9.933350e-01 3.400805e-08
2.325e+09 1.818428e-01 8.181572e-01 1.355842e-11
2.405e+09 8.306038e-02 9.169396e-01 8.307656e-11
2.487e+09 3.249149e-02 9.675085e-01 5.377784e-10
2.570e+09 4.772126e-02 9.522787e-01 1.702508e-10
2.659e+09 1.421730e-01 8.578270e-01 8.358582e-12
2.764e+09 9.893392e-01 1.066080e-02 4.919813e-21
2.899e+09 9.387775e-01 6.122249e-02 1.974457e-18
3.065e+09 9.807970e-01 1.920296e-02 5.781323e-21
3.252e+09 9.997052e-01 2.948233e-04 1.053050e-27
3.446e+09 9.999974e-01 2.555564e-06 7.731289e-35
3.637e+09 9.999995e-01 4.848545e-07 1.372935e-37
3.815e+09 9.999954e-01 4.607258e-06 2.614601e-34
3.975e+09 9.984361e-01 1.563886e-03 2.877991e-26
4.117e+09 9.999998e-01 1.541534e-07 9.244965e-40
4.247e+09 1.000000e+00 3.664727e-09 1.050597e-45
4.369e+09 1.000000e+00 1.937679e-08 2.868139e-43
4.488e+09 9.836358e-01 1.636415e-02 9.155803e-24
4.608e+09 9.999991e-01 9.413415e-07 1.494332e-37
4.729e+09 1.000000e+00 2.136923e-11 2.744815e-54
4.852e+09 1.000000e+00 1.243088e-12 6.135298e-59
4.975e+09 1.000000e+00 3.052285e-12 1.615447e-57
5.101e+09 9.984985e-01 1.501463e-03 9.535651e-28
5.229e+09 9.999999e-01 6.864087e-08 3.030937e-42
5.360e+09 1.000000e+00 1.073159e-11 4.864483e-56
5.492e+09 1.000000e+00 1.472095e-09 1.814793e-48
5.627e+09 9.999999e-01 6.620527e-08 1.115514e-42
5.762e+09 9.999996e-01 3.751315e-07 3.973963e-40
5.899e+09 9.999990e-01 9.550822e-07 8.003423e-39
6.034e+09 9.991150e-01 8.849964e-04 1.858323e-29
6.168e+09 9.989236e-01 1.076367e-03 2.463160e-29
6.297e+09 9.999866e-01 1.337786e-05 2.637770e-35
6.422e+09 9.992459e-01 7.540730e-04 4.797273e-30
6.539e+09 1.000000e+00 6.600363e-11 2.616470e-54
6.646e+09 1.000000e+00 5.790913e-13 1.583872e-60
6.742e+09 1.000000e+00 1.438241e-15 2.981992e-68
6.826e+09 1.000000e+00 1.750309e-15 4.416441e-68
6.896e+09 1.000000e+00 1.754596e-15 4.438103e-68
6.948e+09 1.000000e+00 1.757571e-15 4.453163e-68
6.976e+09 1.000000e+00 1.758662e-15 4.458694e-68
6.989e+09 1.000000e+00 1.759189e-15 4.461364e-68
6.995e+09 1.000000e+00 1.759447e-15 4.462674e-68
6.998e+09 1.000000e+00 1.759575e-15 4.463325e-68
7.000e+09 1.000000e+00 1.759635e-15 4.463631e-68
#TIME: 1.299056
#NVEL: 114
#vel_mid[km/s] Mg0 Mg1 Mg2
4.401e+07 2.606027e-13 1.668051e-05 9.999833e-01
8.862e+07 2.778905e-13 1.697934e-05 9.999830e-01
9.061e+07 3.219822e-13 1.767896e-05 9.999823e-01
9.444e+07 2.829760e-13 1.706440e-05 9.999829e-01
9.991e+07 2.827183e-13 1.706012e-05 9.999829e-01
1.061e+08 3.064873e-13 1.744279e-05 9.999826e-01
1.126e+08 2.662830e-13 1.678448e-05 9.999832e-01
1.194e+08 2.676700e-13 1.682714e-05 9.999832e-01
1.267e+08 2.314061e-13 1.620334e-05 9.999838e-01
1.345e+08 1.755066e-13 1.509935e-05 9.999849e-01
1.427e+08 1.280435e-13 1.393429e-05 9.999861e-01
1.514e+08 1.109936e-13 1.337130e-05 9.999866e-01
1.607e+08 8.036583e-14 1.201657e-05 9.999880e-01
1.705e+08 6.192052e-14 1.104182e-05 9.999890e-01
1.809e+08 4.839895e-14 1.020965e-05 9.999898e-01
1.919e+08 3.739254e-14 9.366368e-06 9.999906e-01
2.037e+08 2.766314e-14 8.459645e-06 9.999915e-01
2.161e+08 2.046441e-14 7.590231e-06 9.999924e-01
2.293e+08 1.398360e-14 6.552050e-06 9.999934e-01
2.433e+08 9.654493e-15 5.660535e-06 9.999943e-01
2.582e+08 7.245213e-15 5.053555e-06 9.999949e-01
2.739e+08 5.977816e-15 4.677146e-06 9.999953e-01
2.907e+08 5.140463e-15 4.374639e-06 9.999956e-01
3.084e+08 4.502359e-15 4.072225e-06 9.999959e-01
3.273e+08 3.963413e-15 3.762824e-06 9.999962e-01
3.472e+08 3.674457e-15 3.526815e-06 9.999965e-01
3.685e+08 3.409658e-15 3.279689e-06 9.999967e-01
3.910e+08 2.884619e-15 2.911776e-06 9.999971e-01
4.148e+08 2.658157e-15 2.739481e-06 9.999973e-01
4.402e+08 2.794501e-15 2.801479e-06 9.999972e-01
4.671e+08 2.592621e-15 2.707439e-06 9.999973e-01
4.956e+08 1.909268e-15 2.331791e-06 9.999977e-01
5.259e+08 1.395427e-15 1.994035e-06 9.999980e-01
5.580e+08 1.181766e-15 1.825005e-06 9.999982e-01
5.921e+08 1.039070e-15 1.695550e-06 9.999983e-01
6.282e+08 9.320731e-16 1.584595e-06 9.999984e-01
6.666e+08 9.117897e-16 1.537505e-06 9.999985e-01
7.074e+08 9.150110e-16 1.501626e-06 9.999985e-01
7.506e+08 8.611090e-16 1.411935e-06 9.999986e-01
7.964e+08 8.494105e-16 1.351105e-06 9.999986e-01
8.451e+08 9.653148e-16 1.372420e-06 9.999986e-01
8.967e+08 1.165555e-15 1.410776e-06 9.999986e-01
9.514e+08 1.534440e-15 1.472269e-06 9.999985e-01
1.010e+09 2.451678e-15 1.624476e-06 9.999984e-01
1.071e+09 4.685855e-15 1.832092e-06 9.999982e-01
1.137e+09 1.023864e-14 2.018290e-06 9.999980e-01
1.206e+09 2.418673e-14 2.103405e-06 9.999979e-01
1.279e+09 6.500269e-14 2.204339e-06 9.999978e-01
1.353e+09 2.093234e-13 2.371539e-06 9.999976e-01
1.419e+09 5.923379e-13 2.463659e-06 9.999975e-01
1.476e+09 2.543078e-12 4.301688e-06 9.999957e-01
1.524e+09 1.253381e-11 1.383039e-05 9.999862e-01
1.565e+09 1.334652e-10 9.143413e-05 9.999086e-01
1.596e+09 1.611494e-09 6.307297e-04 9.993693e-01
1.619e+09 1.090831e-08 3.171162e-03 9.968288e-01
1.635e+09 4.985266e-08 1.192480e-02 9.880752e-01
1.648e+09 4.471524e-07 8.182631e-02 9.181732e-01
1.659e+09 2.681879e-06 3.463446e-01 6.536527e-01
1.669e+09 6.420895e-06 6.230518e-01 3.769418e-01
1.679e+09 1.266657e-05 8.518897e-01 1.480976e-01
1.689e+09 1.788288e-05 9.336584e-01 6.632368e-02
1.700e+09 2.400168e-05 9.712956e-01 2.868040e-02
1.715e+09 3.410112e-05 9.894202e-01 1.054573e-02
1.742e+09 7.109364e-05 9.982094e-01 1.719547e-03
1.789e+09 3.475578e-04 9.995995e-01 5.291722e-05
1.853e+09 1.309790e-03 9.986873e-01 2.933967e-06
1.926e+09 1.745738e-02 9.825426e-01 1.277255e-08
2.003e+09 1.868241e-02 9.813176e-01 7.818176e-09
2.084e+09 7.060842e-02 9.293916e-01 2.879525e-10
2.165e+09 1.009471e-01 8.990529e-01 9.174401e-11
2.245e+09 6.708557e-01 3.291443e-01 2.822641e-14
2.325e+09 2.736737e-01 7.263263e-01 2.818195e-12
2.405e+09 6.252848e-01 3.747152e-01 3.286052e-14
2.487e+09 7.102468e-01 2.897532e-01 7.596644e-15
2.570e+09 9.073155e-01 9.268452e-02 4.504042e-17
2.659e+09 9.698021e-01 3.019791e-02 3.670794e-19
2.764e+09 8.418951e-01 1.581049e-01 1.646583e-16
2.899e+09 6.543494e-01 3.456506e-01 2.393257e-15
3.065e+09 9.707287e-01 2.927132e-02 2.255851e-20
3.252e+09 8.880366e-01 1.119634e-01 8.100892e-19
3.446e+09 9.993919e-01 6.081246e-04 4.538934e-27
3.637e+09 4.786855e-01 5.213145e-01 6.300496e-17
3.815e+09 9.968860e-01 3.113991e-03 2.456844e-25
3.975e+09 8.728632e-01 1.271368e-01 4.128246e-20
4.117e+09 9.901851e-01 9.814874e-03 4.564223e-24
4.247e+09 9.994416e-01 5.584030e-04 4.893402e-28
4.369e+09 2.385924e-01 7.614076e-01 1.579646e-16
4.488e+09 9.941331e-01 5.866941e-03 2.785938e-25
4.608e+09 9.901276e-01 9.872418e-03 9.683792e-25
4.729e+09 9.964954e-01 3.504560e-03 2.745726e-26
4.852e+09 9.999999e-01 6.240650e-08 4.189374e-42
4.975e+09 6.699559e-01 3.300441e-01 1.195002e-19
5.101e+09 9.999995e-01 5.365904e-07 4.835935e-39
5.229e+09 1.000000e+00 1.600240e-10 9.111141e-52
5.360e+09 9.999999e-01 1.128276e-07 1.059693e-41
5.492e+09 9.999993e-01 7.316507e-07 5.934009e-39
5.627e+09 9.999999e-01 8.564933e-08 2.226129e-42
5.762e+09 9.991535e-01 8.465117e-04 2.374560e-29
5.899e+09 1.423788e-01 8.576212e-01 1.040367e-17
6.034e+09 4.668922e-02 9.533108e-01 1.176765e-16
6.168e+09 3.884866e-01 6.115134e-01 1.834213e-19
6.297e+09 9.996418e-01 3.582029e-04 5.175178e-31
6.422e+09 7.047193e-01 2.952807e-01 1.939307e-21
6.539e+09 9.999541e-01 4.587678e-05 6.027627e-34
6.646e+09 9.974591e-01 2.540945e-03 8.837686e-29
6.742e+09 9.986437e-01 1.356329e-03 1.083507e-29
6.826e+09 9.995239e-01 4.761232e-04 3.934545e-31
6.896e+09 9.867496e-01 1.325040e-02 8.609038e-27
6.948e+09 1.000000e+00 1.560211e-10 2.028663e-53
6.976e+09 9.999612e-01 3.882434e-05 1.490603e-34
6.989e+09 9.804923e-01 1.950772e-02 2.469481e-26
6.995e+09 1.000000e+00 1.764698e-15 4.489352e-68
6.998e+09 1.000000e+00 1.764795e-15 4.489845e-68
7.000e+09 1.000000e+00 1.764840e-15 4.490077e-68
#TIME: 1.428962
#NVEL: 114
#vel_mid[km/s] Mg0 Mg1 Mg2
4.401e+07 2.008254e-13 1.364796e-05 9.999864e-01
8.862e+07 3.268445e-13 1.553205e-05 9.999845e-01
9.061e+07 2.880943e-13 1.502733e-05 9.999850e-01
9.444e+07 2.550885e-13 1.455170e-05 9.999854e-01
9.991e+07 2.279953e-13 1.412230e-05 9.999859e-01
1.061e+08 2.438039e-13 1.437790e-05 9.999856e-01
1.126e+08 2.090630e-13 1.380044e-05 9.999862e-01
1.194e+08 2.013504e-13 1.367647e-05 9.999863e-01
1.267e+08 1.698967e-13 1.309464e-05 9.999869e-01
1.345e+08 1.396882e-13 1.250382e-05 9.999875e-01
1.427e+08 1.067943e-13 1.172786e-05 9.999883e-01
1.514e+08 8.204919e-14 1.087959e-05 9.999891e-01
1.607e+08 6.351890e-14 9.990997e-06 9.999900e-01
1.705e+08 4.855746e-14 9.175646e-06 9.999908e-01
1.809e+08 3.813722e-14 8.512333e-06 9.999915e-01
1.919e+08 2.816562e-14 7.713641e-06 9.999923e-01
2.037e+08 2.080534e-14 6.976791e-06 9.999930e-01
2.161e+08 1.568497e-14 6.309397e-06 9.999937e-01
2.293e+08 1.062855e-14 5.441840e-06 9.999946e-01
2.433e+08 7.282114e-15 4.697499e-06 9.999953e-01
