#NTIMES: 190
#time[d] Lbol[erg/s] Edep[erg/s]
1.1340e+00 7.6496e+39 3.9697e+43
1.4501e+00 3.9913e+39 3.8587e+43
1.7662e+00 1.2733e+40 3.7498e+43
2.0823e+00 3.5032e+40 3.6448e+43
2.3984e+00 6.7320e+40 3.5433e+43
2.7145e+00 1.1196e+41 3.4454e+43
3.0306e+00 1.6679e+41 3.3508e+43
3.3467e+00 2.4182e+41 3.2595e+43
3.6628e+00 3.3213e+41 3.1714e+43
3.9789e+00 4.5812e+41 3.0862e+43
4.2950e+00 5.8684e+41 3.0040e+43
4.6111e+00 7.5196e+41 2.9245e+43
4.9272e+00 9.3448e+41 2.8477e+43
5.2433e+00 1.1649e+42 2.7734e+43
5.5594e+00 1.4251e+42 2.7016e+43
5.8755e+00 1.7193e+42 2.6322e+43
6.1916e+00 2.0230e+42 2.5650e+43
6.5077e+00 2.3864e+42 2.4999e+43
6.8238e+00 2.7768e+42 2.4369e+43
7.1399e+00 3.1944e+42 2.3759e+43
7.4560e+00 3.6233e+42 2.3168e+43
7.7721e+00 4.0706e+42 2.2595e+43
8.0882e+00 4.5632e+42 2.2039e+43
8.4043e+00 5.0147e+42 2.1500e+43
8.7204e+00 5.5550e+42 2.0978e+43
9.0364e+00 6.0671e+42 2.0469e+43
9.3525e+00 6.5670e+42 1.9977e+43
9.6686e+00 7.0188e+42 1.9499e+43
9.9847e+00 7.4654e+42 1.9035e+43
1.0301e+01 7.8621e+42 1.8585e+43
1.0617e+01 8.3311e+42 1.8146e+43
1.0933e+01 8.7106e+42 1.7722e+43
1.1249e+01 9.0824e+42 1.7308e+43
1.1565e+01 9.4412e+42 1.6905e+43
1.1881e+01 9.8457e+42 1.6515e+43
1.2197e+01 1.0095e+43 1.6136e+43
1.2514e+01 1.0447e+43 1.5767e+43
1.2830e+01 1.0661e+43 1.5410e+43
1.3146e+01 1.0955e+43 1.5060e+43
1.3462e+01 1.1173e+43 1.4723e+43
1.3778e+01 1.1366e+43 1.4392e+43
1.4094e+01 1.1549e+43 1.4074e+43
1.4410e+01 1.1663e+43 1.3761e+43
1.4726e+01 1.1886e+43 1.3457e+43
1.5042e+01 1.1960e+43 1.3166e+43
1.5358e+01 1.2106e+43 1.2876e+43
1.5674e+01 1.2119e+43 1.2602e+43
1.5991e+01 1.2253e+43 1.2332e+43
1.6307e+01 1.2233e+43 1.2067e+43
1.6623e+01 1.2268e+43 1.1812e+43
1.6939e+01 1.2320e+43 1.1562e+43
1.7255e+01 1.2283e+43 1.1322e+43
1.7571e+01 1.2314e+43 1.1088e+43
1.7887e+01 1.2232e+43 1.0860e+43
1.8203e+01 1.2209e+43 1.0635e+43
1.8519e+01 1.2142e+43 1.0419e+43
1.8835e+01 1.2040e+43 1.0209e+43
1.9152e+01 1.2026e+43 9.9994e+42
1.9468e+01 1.1870e+43 9.8063e+42
1.9784e+01 1.1749e+43 9.6139e+42
2.0100e+01 1.1668e+43 9.4220e+42
2.0416e+01 1.1542e+43 9.2382e+42
2.0732e+01 1.1399e+43 9.0610e+42
2.1048e+01 1.1252e+43 8.8870e+42
2.1364e+01 1.1155e+43 8.7188e+42
2.1680e+01 1.1015e+43 8.5568e+42
2.1996e+01 1.0853e+43 8.3922e+42
2.2312e+01 1.0694e+43 8.2377e+42
2.2629e+01 1.0525e+43 8.0848e+42
2.2945e+01 1.0371e+43 7.9412e+42
2.3261e+01 1.0200e+43 7.7956e+42
2.3577e+01 1.0033e+43 7.6536e+42
2.3893e+01 9.8841e+42 7.5181e+42
2.4209e+01 9.7082e+42 7.3825e+42
2.4525e+01 9.5687e+42 7.2524e+42
2.4841e+01 9.3959e+42 7.1259e+42
2.5157e+01 9.2398e+42 7.0059e+42
2.5473e+01 9.0534e+42 6.8895e+42
2.5790e+01 8.8625e+42 6.7661e+42
2.6106e+01 8.7066e+42 6.6532e+42
2.6422e+01 8.5555e+42 6.5433e+42
2.6738e+01 8.3859e+42 6.4292e+42
2.7054e+01 8.2192e+42 6.3255e+42
2.7370e+01 8.0831e+42 6.2215e+42
2.7686e+01 7.9539e+42 6.1219e+42
2.8002e+01 7.7894e+42 6.0227e+42
2.8318e+01 7.6748e+42 5.9253e+42
2.8634e+01 7.5180e+42 5.8322e+42
2.8950e+01 7.3843e+42 5.7361e+42
2.9267e+01 7.2665e+42 5.6451e+42
2.9583e+01 7.1610e+42 5.5628e+42
2.9899e+01 7.0419e+42 5.4760e+42
3.0215e+01 6.9265e+42 5.3899e+42
3.0531e+01 6.8302e+42 5.3057e+42
3.0847e+01 6.7185e+42 5.2276e+42
3.1163e+01 6.6373e+42 5.1503e+42
3.1479e+01 6.5368e+42 5.0737e+42
3.1795e+01 6.4386e+42 4.9989e+42
3.2111e+01 6.3542e+42 4.9276e+42
3.2428e+01 6.2687e+42 4.8546e+42
3.2744e+01 6.2083e+42 4.7824e+42
3.3060e+01 6.1066e+42 4.7155e+42
3.3376e+01 6.0133e+42 4.6451e+42
3.3692e+01 5.9408e+42 4.5819e+42
3.4008e+01 5.8560e+42 4.5169e+42
3.4324e+01 5.7832e+42 4.4502e+42
3.4640e+01 5.7060e+42 4.3916e+42
3.4956e+01 5.6231e+42 4.3299e+42
3.5272e+01 5.5524e+42 4.2698e+42
3.5589e+01 5.4706e+42 4.2098e+42
3.5905e+01 5.3919e+42 4.1535e+42
3.6221e+01 5.3183e+42 4.0949e+42
3.6537e+01 5.2473e+42 4.0389e+42
3.6853e+01 5.1713e+42 3.9906e+42
3.7169e+01 5.0789e+42 3.9352e+42
3.7485e+01 5.0192e+42 3.8837e+42
3.7801e+01 4.9287e+42 3.8277e+42
3.8117e+01 4.8609e+42 3.7795e+42
3.8433e+01 4.7965e+42 3.7318e+42
3.8749e+01 4.7188e+42 3.6799e+42
3.9066e+01 4.6372e+42 3.6361e+42
3.9382e+01 4.5700e+42 3.5854e+42
3.9698e+01 4.4802e+42 3.5422e+42
4.0014e+01 4.4098e+42 3.4976e+42
4.0330e+01 4.3294e+42 3.4520e+42
4.0646e+01 4.2784e+42 3.4087e+42
4.0962e+01 4.1950e+42 3.3696e+42
4.1278e+01 4.1124e+42 3.3244e+42
4.1594e+01 4.0466e+42 3.2833e+42
4.1910e+01 3.9697e+42 3.2442e+42
4.2227e+01 3.8852e+42 3.2012e+42
4.2543e+01 3.8172e+42 3.1640e+42
4.2859e+01 3.7544e+42 3.1289e+42
4.3175e+01 3.6911e+42 3.0867e+42
4.3491e+01 3.6139e+42 3.0491e+42
4.3807e+01 3.5496e+42 3.0134e+42
4.4123e+01 3.4839e+42 2.9753e+42
4.4439e+01 3.4197e+42 2.9414e+42
4.4755e+01 3.3549e+42 2.9074e+42
4.5071e+01 3.2942e+42 2.8720e+42
4.5387e+01 3.2384e+42 2.8329e+42
4.5704e+01 3.1731e+42 2.8040e+42
4.6020e+01 3.1286e+42 2.7717e+42
4.6336e+01 3.0780e+42 2.7386e+42
4.6652e+01 3.0182e+42 2.7098e+42
4.6968e+01 2.9669e+42 2.6750e+42
4.7284e+01 2.9075e+42 2.6431e+42
4.7600e+01 2.8645e+42 2.6115e+42
4.7916e+01 2.8195e+42 2.5852e+42
4.8232e+01 2.7705e+42 2.5531e+42
4.8548e+01 2.7269e+42 2.5218e+42
4.8865e+01 2.6793e+42 2.4963e+42
4.9181e+01 2.6328e+42 2.4631e+42
4.9497e+01 2.5969e+42 2.4363e+42
4.9813e+01 2.5593e+42 2.4087e+42
5.0129e+01 2.5165e+42 2.3863e+42
5.0445e+01 2.4826e+42 2.3546e+42
5.0761e+01 2.4415e+42 2.3315e+42
5.1077e+01 2.4088e+42 2.3059e+42
5.1393e+01 2.3663e+42 2.2802e+42
5.1709e+01 2.3378e+42 2.2554e+42
5.2026e+01 2.3080e+42 2.2291e+42
5.2342e+01 2.2698e+42 2.2050e+42
5.2658e+01 2.2373e+42 2.1816e+42
5.2974e+01 2.2100e+42 2.1564e+42
5.3290e+01 2.1834e+42 2.1315e+42
5.3606e+01 2.1517e+42 2.1082e+42
5.3922e+01 2.1295e+42 2.0865e+42
5.4238e+01 2.1009e+42 2.0627e+42
5.4554e+01 2.0702e+42 2.0402e+42
5.4870e+01 2.0452e+42 2.0197e+42
5.5186e+01 2.0225e+42 1.9971e+42
5.5503e+01 1.9969e+42 1.9775e+42
5.5819e+01 1.9695e+42 1.9545e+42
5.6135e+01 1.9499e+42 1.9354e+42
5.6451e+01 1.9258e+42 1.9123e+42
5.6767e+01 1.9062e+42 1.8912e+42
5.7083e+01 1.8782e+42 1.8741e+42
5.7399e+01 1.8643e+42 1.8546e+42
5.7715e+01 1.8381e+42 1.8342e+42
5.8031e+01 1.8169e+42 1.8143e+42
5.8347e+01 1.7986e+42 1.7941e+42
5.8664e+01 1.7795e+42 1.7766e+42
5.8980e+01 1.7598e+42 1.7568e+42
5.9296e+01 1.7347e+42 1.7386e+42
5.9612e+01 1.7209e+42 1.7208e+42
5.9928e+01 1.7022e+42 1.7035e+42
6.0244e+01 1.6809e+42 1.6838e+42
6.0560e+01 1.6617e+42 1.6685e+42
6.0876e+01 1.6467e+42 1.6523e+42
