#NTIMES: 797
#time[d] Lbol[erg/s] Edep[erg/s]
9.760116e-01 8.3190e+39 4.3880e+43
9.760346e-01 8.3080e+39 4.3880e+43
9.760804e-01 8.2820e+39 4.3880e+43
9.761717e-01 8.2310e+39 4.3880e+43
9.763532e-01 8.1340e+39 4.3880e+43
9.767144e-01 7.9430e+39 4.3880e+43
9.774332e-01 7.6090e+39 4.3870e+43
9.786919e-01 7.1180e+39 4.3870e+43
9.800941e-01 6.6570e+39 4.3860e+43
9.816424e-01 6.2270e+39 4.3860e+43
9.833498e-01 5.8290e+39 4.3850e+43
9.852310e-01 5.4580e+39 4.3840e+43
9.873022e-01 5.1120e+39 4.3830e+43
9.895807e-01 4.7940e+39 4.3830e+43
9.920854e-01 4.4960e+39 4.3820e+43
9.948358e-01 4.2190e+39 4.3800e+43
9.978522e-01 3.9620e+39 4.3790e+43
1.001155e+00 3.7340e+39 4.3780e+43
1.004767e+00 3.5130e+39 4.3760e+43
1.008707e+00 3.3080e+39 4.3750e+43
1.012997e+00 3.1260e+39 4.3730e+43
1.017659e+00 2.9500e+39 4.3710e+43
1.022712e+00 2.7950e+39 4.3690e+43
1.028176e+00 2.6530e+39 4.3670e+43
1.034071e+00 2.5150e+39 4.3640e+43
1.040415e+00 2.3860e+39 4.3620e+43
1.047227e+00 2.2760e+39 4.3590e+43
1.054525e+00 2.1660e+39 4.3560e+43
1.062326e+00 2.0640e+39 4.3530e+43
1.070650e+00 1.9690e+39 4.3500e+43
1.079517e+00 1.8920e+39 4.3460e+43
1.088949e+00 1.8110e+39 4.3420e+43
1.098973e+00 1.7370e+39 4.3380e+43
1.109623e+00 1.6790e+39 4.3340e+43
1.120937e+00 1.6160e+39 4.3300e+43
1.132941e+00 1.5580e+39 4.3250e+43
1.145719e+00 1.5070e+39 4.3200e+43
1.159399e+00 1.4160e+39 4.3140e+43
1.173821e+00 1.3750e+39 4.3090e+43
1.189031e+00 1.3400e+39 4.3030e+43
1.205275e+00 1.3160e+39 4.2960e+43
1.222314e+00 1.2650e+39 4.2890e+43
1.240099e+00 1.2890e+39 4.2820e+43
1.258790e+00 1.3340e+39 4.2750e+43
1.278182e+00 1.4060e+39 4.2670e+43
1.298187e+00 1.4790e+39 4.2600e+43
1.318591e+00 1.6170e+39 4.2520e+43
1.339474e+00 1.8270e+39 4.2430e+43
1.360595e+00 2.0510e+39 4.2350e+43
1.381779e+00 2.3230e+39 4.2270e+43
1.403151e+00 2.6880e+39 4.2190e+43
1.424547e+00 3.0670e+39 4.2110e+43
1.444736e+00 3.6070e+39 4.2030e+43
1.464160e+00 4.1460e+39 4.1950e+43
1.483224e+00 4.7720e+39 4.1880e+43
1.502187e+00 5.2850e+39 4.1810e+43
1.521243e+00 5.8590e+39 4.1730e+43
1.540545e+00 6.4990e+39 4.1660e+43
1.560226e+00 7.2120e+39 4.1590e+43
1.580401e+00 8.0070e+39 4.1510e+43
1.601180e+00 8.8950e+39 4.1430e+43
1.622670e+00 9.8870e+39 4.1350e+43
1.644977e+00 1.0990e+40 4.1260e+43
1.668211e+00 1.2240e+40 4.1180e+43
1.692484e+00 1.3480e+40 4.1090e+43
1.717913e+00 1.5060e+40 4.0990e+43
1.744622e+00 1.6820e+40 4.0890e+43
1.772742e+00 1.8810e+40 4.0790e+43
1.801940e+00 2.1020e+40 4.0680e+43
1.831655e+00 2.3420e+40 4.0570e+43
1.861875e+00 2.6030e+40 4.0460e+43
1.892608e+00 2.8870e+40 4.0340e+43
1.923864e+00 3.1950e+40 4.0230e+43
1.955650e+00 3.5430e+40 4.0110e+43
1.987977e+00 3.9020e+40 4.0000e+43
2.020852e+00 4.2900e+40 3.9880e+43
2.054286e+00 4.7100e+40 3.9760e+43
2.088288e+00 5.1640e+40 3.9640e+43
2.122868e+00 5.6540e+40 3.9510e+43
2.158035e+00 6.2050e+40 3.9390e+43
2.193799e+00 6.7770e+40 3.9260e+43
2.230171e+00 7.3940e+40 3.9130e+43
2.267160e+00 8.0590e+40 3.9000e+43
2.304778e+00 8.7710e+40 3.8870e+43
2.343035e+00 9.5390e+40 3.8730e+43
2.381941e+00 1.0370e+41 3.8600e+43
2.421509e+00 1.1260e+41 3.8460e+43
2.461748e+00 1.2220e+41 3.8320e+43
2.502671e+00 1.3270e+41 3.8180e+43
2.544290e+00 1.4390e+41 3.8040e+43
2.586615e+00 1.5580e+41 3.7900e+43
2.629659e+00 1.6870e+41 3.7750e+43
2.673434e+00 1.8250e+41 3.7600e+43
2.717939e+00 1.9720e+41 3.7450e+43
2.763168e+00 2.1300e+41 3.7300e+43
2.809133e+00 2.2990e+41 3.7150e+43
2.855846e+00 2.4800e+41 3.7000e+43
2.903318e+00 2.6740e+41 3.6840e+43
2.951562e+00 2.8820e+41 3.6680e+43
3.000592e+00 3.1030e+41 3.6530e+43
3.050420e+00 3.3400e+41 3.6360e+43
3.101059e+00 3.5930e+41 3.6200e+43
3.152524e+00 3.8630e+41 3.6040e+43
3.204827e+00 4.1480e+41 3.5870e+43
3.257982e+00 4.4520e+41 3.5700e+43
3.312004e+00 4.7750e+41 3.5530e+43
3.366907e+00 5.1190e+41 3.5360e+43
3.422706e+00 5.4840e+41 3.5190e+43
3.479416e+00 5.8720e+41 3.5010e+43
3.537052e+00 6.2840e+41 3.4840e+43
3.595629e+00 6.7220e+41 3.4660e+43
3.655163e+00 7.1850e+41 3.4480e+43
3.715671e+00 7.6770e+41 3.4300e+43
3.777168e+00 8.1970e+41 3.4110e+43
3.839671e+00 8.7460e+41 3.3930e+43
3.903196e+00 9.3240e+41 3.3740e+43
3.967762e+00 9.9350e+41 3.3550e+43
4.033386e+00 1.0580e+42 3.3360e+43
4.100085e+00 1.1260e+42 3.3170e+43
4.167878e+00 1.1970e+42 3.2980e+43
4.236782e+00 1.2730e+42 3.2780e+43
4.306817e+00 1.3520e+42 3.2590e+43
4.378001e+00 1.4350e+42 3.2390e+43
4.450355e+00 1.5230e+42 3.2190e+43
4.523897e+00 1.6140e+42 3.1980e+43
4.598647e+00 1.7100e+42 3.1780e+43
4.674627e+00 1.8100e+42 3.1580e+43
4.751856e+00 1.9140e+42 3.1370e+43
4.830357e+00 2.0230e+42 3.1160e+43
4.910149e+00 2.1360e+42 3.0950e+43
4.991256e+00 2.2550e+42 3.0740e+43
5.073698e+00 2.3780e+42 3.0520e+43
5.157500e+00 2.5070e+42 3.0310e+43
5.242683e+00 2.6400e+42 3.0090e+43
5.329270e+00 2.7790e+42 2.9870e+43
5.417287e+00 2.9230e+42 2.9660e+43
5.506756e+00 3.0700e+42 2.9430e+43
5.597703e+00 3.2230e+42 2.9210e+43
5.690152e+00 3.3800e+42 2.8990e+43
5.784129e+00 3.5430e+42 2.8760e+43
5.879659e+00 3.7110e+42 2.8530e+43
5.976769e+00 3.8850e+42 2.8310e+43
6.075486e+00 4.0630e+42 2.8080e+43
6.175836e+00 4.2460e+42 2.7850e+43
6.277848e+00 4.4350e+42 2.7610e+43
6.381549e+00 4.6280e+42 2.7380e+43
6.486968e+00 4.8240e+42 2.7150e+43
6.594135e+00 5.0240e+42 2.6910e+43
6.703078e+00 5.2290e+42 2.6670e+43
6.813828e+00 5.4380e+42 2.6430e+43
6.926415e+00 5.6520e+42 2.6190e+43
7.040871e+00 5.8690e+42 2.5950e+43
7.157226e+00 6.0890e+42 2.5710e+43
7.275513e+00 6.3140e+42 2.5470e+43
7.395765e+00 6.5410e+42 2.5220e+43
7.518015e+00 6.7690e+42 2.4980e+43
7.642296e+00 6.9990e+42 2.4730e+43
7.768643e+00 7.2320e+42 2.4490e+43
7.897091e+00 7.4660e+42 2.4240e+43
8.027674e+00 7.7020e+42 2.3990e+43
8.160430e+00 7.9400e+42 2.3740e+43
8.295395e+00 8.1780e+42 2.3490e+43
8.432606e+00 8.4150e+42 2.3240e+43
8.572101e+00 8.6500e+42 2.2990e+43
8.713919e+00 8.8850e+42 2.2730e+43
8.858098e+00 9.1200e+42 2.2480e+43
9.004680e+00 9.3530e+42 2.2230e+43
9.153703e+00 9.5850e+42 2.1970e+43
9.305210e+00 9.8130e+42 2.1720e+43
9.459225e+00 1.0040e+43 2.1460e+43
9.615582e+00 1.0260e+43 2.1210e+43
9.774299e+00 1.0480e+43 2.0950e+43
9.935400e+00 1.0690e+43 2.0700e+43
1.009891e+01 1.0900e+43 2.0440e+43
1.026486e+01 1.1110e+43 2.0190e+43
1.043326e+01 1.1310e+43 1.9930e+43
1.060415e+01 1.1500e+43 1.9680e+43
1.077755e+01 1.1690e+43 1.9420e+43
1.095608e+01 1.1870e+43 1.9160e+43
1.113767e+01 1.2050e+43 1.8900e+43
1.132229e+01 1.2210e+43 1.8650e+43
1.151000e+01 1.2370e+43 1.8390e+43
1.170085e+01 1.2520e+43 1.8130e+43
1.189489e+01 1.2670e+43 1.7870e+43
1.209185e+01 1.2800e+43 1.7610e+43
1.229137e+01 1.2930e+43 1.7360e+43
1.249345e+01 1.3050e+43 1.7100e+43
1.269812e+01 1.3150e+43 1.6850e+43
1.290539e+01 1.3250e+43 1.6590e+43
1.311529e+01 1.3340e+43 1.6340e+43
1.332782e+01 1.3420e+43 1.6090e+43
1.354302e+01 1.3490e+43 1.5840e+43
1.376090e+01 1.3550e+43 1.5590e+43
1.398149e+01 1.3600e+43 1.5350e+43
1.420480e+01 1.3640e+43 1.5100e+43
1.443087e+01 1.3670e+43 1.4860e+43
1.465971e+01 1.3690e+43 1.4620e+43
1.489137e+01 1.3700e+43 1.4380e+43
1.512585e+01 1.3700e+43 1.4140e+43
1.536320e+01 1.3690e+43 1.3910e+43
1.560343e+01 1.3660e+43 1.3670e+43
1.584659e+01 1.3630e+43 1.3440e+43
1.609271e+01 1.3580e+43 1.3210e+43
1.634182e+01 1.3530e+43 1.2980e+43
1.659395e+01 1.3460e+43 1.2760e+43
1.684915e+01 1.3380e+43 1.2530e+43
1.710746e+01 1.3290e+43 1.2310e+43
1.736891e+01 1.3190e+43 1.2090e+43
1.763354e+01 1.3090e+43 1.1880e+43
1.790140e+01 1.2970e+43 1.1660e+43
1.817255e+01 1.2850e+43 1.1450e+43
1.844701e+01 1.2720e+43 1.1240e+43
1.872484e+01 1.2580e+43 1.1030e+43
1.900610e+01 1.2430e+43 1.0820e+43
1.929084e+01 1.2280e+43 1.0620e+43
1.957910e+01 1.2120e+43 1.0420e+43
1.987094e+01 1.1960e+43 1.0220e+43
2.016643e+01 1.1790e+43 1.0020e+43
2.046562e+01 1.1610e+43 9.8300e+42
2.076857e+01 1.1430e+43 9.6390e+42
2.107535e+01 1.1240e+43 9.4500e+42
2.138602e+01 1.1050e+43 9.2630e+42
2.170064e+01 1.0860e+43 9.0800e+42
2.201929e+01 1.0660e+43 8.8980e+42
2.234203e+01 1.0460e+43 8.7200e+42
2.266895e+01 1.0260e+43 8.5430e+42
2.300010e+01 1.0050e+43 8.3700e+42
2.333558e+01 9.8480e+42 8.1990e+42
2.367545e+01 9.6420e+42 8.0300e+42
2.401980e+01 9.4360e+42 7.8640e+42
2.436871e+01 9.2290e+42 7.7010e+42
2.472227e+01 9.0390e+42 7.5400e+42
2.508056e+01 8.8550e+42 7.3810e+42
2.544366e+01 8.6710e+42 7.2260e+42
2.581168e+01 8.4860e+42 7.0720e+42
2.618469e+01 8.3020e+42 6.9210e+42
2.656280e+01 8.1190e+42 6.7730e+42
2.694610e+01 7.9370e+42 6.6270e+42
2.733468e+01 7.7560e+42 6.4840e+42
2.772865e+01 7.5770e+42 6.3430e+42
2.812810e+01 7.4000e+42 6.2040e+42
2.853314e+01 7.2250e+42 6.0680e+42
2.894387e+01 7.0530e+42 5.9340e+42
2.936040e+01 6.8820e+42 5.8020e+42
2.978283e+01 6.7140e+42 5.6730e+42
3.021128e+01 6.5490e+42 5.5470e+42
3.064586e+01 6.3870e+42 5.4220e+42
3.108667e+01 6.2270e+42 5.3000e+42
3.153383e+01 6.0710e+42 5.1800e+42
3.198746e+01 5.9170e+42 5.0620e+42
3.244769e+01 5.7660e+42 4.9460e+42
3.291462e+01 5.6180e+42 4.8330e+42
3.338838e+01 5.4730e+42 4.7210e+42
3.386909e+01 5.3300e+42 4.6120e+42
3.435688e+01 5.1910e+42 4.5040e+42
3.485189e+01 5.0550e+42 4.3990e+42
3.535423e+01 4.9210e+42 4.2960e+42
3.586392e+01 4.7900e+42 4.1950e+42
3.638113e+01 4.6630e+42 4.0950e+42
3.690598e+01 4.5380e+42 3.9980e+42
3.743857e+01 4.4160e+42 3.9020e+42
3.797901e+01 4.2970e+42 3.8090e+42
3.852595e+01 4.1810e+42 3.7170e+42
3.907954e+01 4.0690e+42 3.6270e+42
3.964012e+01 3.9590e+42 3.5400e+42
4.020824e+01 3.8520e+42 3.4540e+42
4.078447e+01 3.7480e+42 3.3700e+42
4.136317e+01 3.6480e+42 3.2870e+42
4.194188e+01 3.5510e+42 3.2080e+42
4.252058e+01 3.4580e+42 3.1310e+42
4.309928e+01 3.3690e+42 3.0570e+42
4.367799e+01 3.2980e+42 2.9840e+42
4.425669e+01 3.2120e+42 2.9150e+42
4.483540e+01 3.1310e+42 2.8470e+42
4.541410e+01 3.0530e+42 2.7820e+42
4.599280e+01 2.9770e+42 2.7190e+42
4.657151e+01 2.9050e+42 2.6570e+42
4.715021e+01 2.8350e+42 2.5980e+42
4.772891e+01 2.7670e+42 2.5400e+42
4.830762e+01 2.7020e+42 2.4840e+42
4.888632e+01 2.6390e+42 2.4300e+42
4.946502e+01 2.5780e+42 2.3770e+42
5.004373e+01 2.5190e+42 2.3260e+42
5.062243e+01 2.4620e+42 2.2760e+42
5.120114e+01 2.4070e+42 2.2280e+42
5.177984e+01 2.3530e+42 2.1810e+42
5.235854e+01 2.3020e+42 2.1360e+42
5.293725e+01 2.2520e+42 2.0910e+42
5.351595e+01 2.2030e+42 2.0480e+42
5.409465e+01 2.1560e+42 2.0070e+42
5.467336e+01 2.1110e+42 1.9660e+42
5.525206e+01 2.0670e+42 1.9260e+42
5.583077e+01 2.0240e+42 1.8870e+42
5.640947e+01 1.9820e+42 1.8500e+42
5.698817e+01 1.9420e+42 1.8130e+42
5.756688e+01 1.9030e+42 1.7780e+42
5.814558e+01 1.8650e+42 1.7430e+42
5.872428e+01 1.8270e+42 1.7090e+42
5.930299e+01 1.7910e+42 1.6760e+42
5.988169e+01 1.7560e+42 1.6440e+42
6.046040e+01 1.7220e+42 1.6130e+42
6.103910e+01 1.6890e+42 1.5820e+42
6.161780e+01 1.6560e+42 1.5530e+42
6.219651e+01 1.6250e+42 1.5230e+42
6.277521e+01 1.5940e+42 1.4950e+42
6.335391e+01 1.5640e+42 1.4680e+42
6.393262e+01 1.5350e+42 1.4410e+42
6.451132e+01 1.5060e+42 1.4140e+42
6.509002e+01 1.4790e+42 1.3890e+42
6.566873e+01 1.4520e+42 1.3640e+42
6.624743e+01 1.4250e+42 1.3390e+42
6.682614e+01 1.3990e+42 1.3150e+42
6.740484e+01 1.3740e+42 1.2920e+42
6.798354e+01 1.3500e+42 1.2690e+42
6.856225e+01 1.3250e+42 1.2470e+42
6.914095e+01 1.3020e+42 1.2250e+42
6.971965e+01 1.2790e+42 1.2040e+42
7.029836e+01 1.2570e+42 1.1830e+42
7.087706e+01 1.2350e+42 1.1630e+42
7.145577e+01 1.2140e+42 1.1430e+42
7.203447e+01 1.1930e+42 1.1240e+42
7.261317e+01 1.1720e+42 1.1050e+42
7.319188e+01 1.1520e+42 1.0860e+42
7.377058e+01 1.1330e+42 1.0680e+42
7.434928e+01 1.1140e+42 1.0500e+42
7.492799e+01 1.0950e+42 1.0330e+42
7.550669e+01 1.0770e+42 1.0160e+42
7.608540e+01 1.0590e+42 9.9960e+41
7.666410e+01 1.0410e+42 9.8340e+41
7.724280e+01 1.0240e+42 9.6750e+41
7.782151e+01 1.0080e+42 9.5190e+41
7.840021e+01 9.9140e+41 9.3670e+41
7.897891e+01 9.7540e+41 9.2180e+41
7.955762e+01 9.5970e+41 9.0720e+41
8.013632e+01 9.4440e+41 8.9290e+41
8.071502e+01 9.2940e+41 8.7890e+41
8.129373e+01 9.1470e+41 8.6520e+41
8.187243e+01 9.0040e+41 8.5180e+41
8.245114e+01 8.8630e+41 8.3860e+41
8.302984e+01 8.7260e+41 8.2580e+41
8.360854e+01 8.5910e+41 8.1310e+41
8.418725e+01 8.4590e+41 8.0080e+41
8.476595e+01 8.3290e+41 7.8860e+41
8.534465e+01 8.2030e+41 7.7680e+41
8.592336e+01 8.0790e+41 7.6510e+41
8.650206e+01 7.9570e+41 7.5370e+41
8.708077e+01 7.8380e+41 7.4250e+41
8.765947e+01 7.7210e+41 7.3160e+41
8.823817e+01 7.6070e+41 7.2080e+41
8.881688e+01 7.4950e+41 7.1030e+41
8.939558e+01 7.3850e+41 6.9990e+41
8.997428e+01 7.2780e+41 6.8980e+41
9.055299e+01 7.1720e+41 6.7980e+41
9.113169e+01 7.0690e+41 6.7010e+41
9.171040e+01 6.9670e+41 6.6050e+41
9.228910e+01 6.8680e+41 6.5110e+41
9.286780e+01 6.7700e+41 6.4190e+41
9.344651e+01 6.6740e+41 6.3290e+41
9.402521e+01 6.5800e+41 6.2400e+41
9.460391e+01 6.4880e+41 6.1530e+41
9.518262e+01 6.3980e+41 6.0670e+41
9.576132e+01 6.3090e+41 5.9830e+41
9.634002e+01 6.2220e+41 5.9010e+41
9.691873e+01 6.1360e+41 5.8200e+41
9.749743e+01 6.0520e+41 5.7410e+41
9.807614e+01 5.9700e+41 5.6630e+41
9.865484e+01 5.8890e+41 5.5860e+41
9.923354e+01 5.8090e+41 5.5110e+41
9.981225e+01 5.7310e+41 5.4370e+41
1.003910e+02 5.6550e+41 5.3640e+41
1.009697e+02 5.5790e+41 5.2930e+41
1.015484e+02 5.5050e+41 5.2230e+41
1.021271e+02 5.4330e+41 5.1540e+41
1.027058e+02 5.3610e+41 5.0870e+41
1.032845e+02 5.2910e+41 5.0200e+41
1.038632e+02 5.2220e+41 4.9550e+41
1.044419e+02 5.1550e+41 4.8910e+41
1.050206e+02 5.0880e+41 4.8280e+41
1.055993e+02 5.0230e+41 4.7660e+41
1.061780e+02 4.9580e+41 4.7050e+41
1.067567e+02 4.8950e+41 4.6450e+41
1.073354e+02 4.8330e+41 4.5860e+41
1.079141e+02 4.7720e+41 4.5280e+41
1.084928e+02 4.7120e+41 4.4710e+41
1.090715e+02 4.6530e+41 4.4150e+41
1.096502e+02 4.5950e+41 4.3600e+41
1.102289e+02 4.5380e+41 4.3060e+41
1.108076e+02 4.4820e+41 4.2530e+41
1.113863e+02 4.4260e+41 4.2000e+41
1.119650e+02 4.3720e+41 4.1490e+41
1.125437e+02 4.3190e+41 4.0980e+41
1.131224e+02 4.2660e+41 4.0480e+41
1.137011e+02 4.2140e+41 3.9990e+41
1.142798e+02 4.1630e+41 3.9510e+41
1.148585e+02 4.1130e+41 3.9040e+41
1.154372e+02 4.0640e+41 3.8570e+41
1.160160e+02 4.0160e+41 3.8110e+41
1.165947e+02 3.9680e+41 3.7650e+41
1.171734e+02 3.9210e+41 3.7210e+41
1.177521e+02 3.8750e+41 3.6770e+41
1.183308e+02 3.8290e+41 3.6340e+41
1.189095e+02 3.7840e+41 3.5910e+41
1.194882e+02 3.7400e+41 3.5490e+41
1.200669e+02 3.6970e+41 3.5080e+41
1.206456e+02 3.6540e+41 3.4680e+41
1.212243e+02 3.6120e+41 3.4280e+41
1.218030e+02 3.5710e+41 3.3880e+41
1.223817e+02 3.5300e+41 3.3500e+41
1.229604e+02 3.4900e+41 3.3110e+41
1.235391e+02 3.4500e+41 3.2740e+41
1.241178e+02 3.4110e+41 3.2370e+41
1.246965e+02 3.3730e+41 3.2000e+41
1.252752e+02 3.3350e+41 3.1640e+41
1.258539e+02 3.2980e+41 3.1290e+41
1.264326e+02 3.2610e+41 3.0940e+41
1.270113e+02 3.2250e+41 3.0600e+41
1.275900e+02 3.1890e+41 3.0260e+41
1.281687e+02 3.1540e+41 2.9930e+41
1.287474e+02 3.1200e+41 2.9600e+41
1.293261e+02 3.0850e+41 2.9270e+41
1.299048e+02 3.0520e+41 2.8950e+41
1.304835e+02 3.0190e+41 2.8640e+41
1.310622e+02 2.9860e+41 2.8330e+41
1.316410e+02 2.9540e+41 2.8020e+41
1.322197e+02 2.9220e+41 2.7720e+41
1.327984e+02 2.8910e+41 2.7430e+41
1.333771e+02 2.8600e+41 2.7130e+41
1.339558e+02 2.8300e+41 2.6840e+41
1.345345e+02 2.8000e+41 2.6560e+41
1.351132e+02 2.7700e+41 2.6280e+41
1.356919e+02 2.7410e+41 2.6000e+41
1.362706e+02 2.7130e+41 2.5730e+41
1.368493e+02 2.6840e+41 2.5460e+41
1.374280e+02 2.6560e+41 2.5190e+41
1.380067e+02 2.6290e+41 2.4930e+41
1.385854e+02 2.6020e+41 2.4670e+41
1.391641e+02 2.5750e+41 2.4420e+41
1.397428e+02 2.5480e+41 2.4170e+41
1.403215e+02 2.5220e+41 2.3920e+41
1.409002e+02 2.4970e+41 2.3670e+41
1.414789e+02 2.4710e+41 2.3430e+41
1.420576e+02 2.4460e+41 2.3200e+41
1.426363e+02 2.4220e+41 2.2960e+41
1.432150e+02 2.3970e+41 2.2730e+41
1.437937e+02 2.3730e+41 2.2500e+41
1.443724e+02 2.3490e+41 2.2270e+41
1.449511e+02 2.3260e+41 2.2050e+41
1.455298e+02 2.3030e+41 2.1830e+41
1.461085e+02 2.2800e+41 2.1610e+41
1.466872e+02 2.2580e+41 2.1400e+41
1.472660e+02 2.2350e+41 2.1190e+41
1.478447e+02 2.2140e+41 2.0980e+41
1.484234e+02 2.1920e+41 2.0770e+41
1.490021e+02 2.1710e+41 2.0570e+41
1.495808e+02 2.1490e+41 2.0370e+41
1.501595e+02 2.1290e+41 2.0170e+41
1.507382e+02 2.1080e+41 1.9980e+41
1.513169e+02 2.0880e+41 1.9780e+41
1.518956e+02 2.0680e+41 1.9590e+41
1.524743e+02 2.0480e+41 1.9400e+41
1.530530e+02 2.0280e+41 1.9220e+41
1.536317e+02 2.0090e+41 1.9030e+41
1.542104e+02 1.9900e+41 1.8850e+41
1.547891e+02 1.9710e+41 1.8670e+41
1.553678e+02 1.9530e+41 1.8500e+41
1.559465e+02 1.9340e+41 1.8320e+41
1.565252e+02 1.9160e+41 1.8150e+41
1.571039e+02 1.8980e+41 1.7980e+41
1.576826e+02 1.8810e+41 1.7810e+41
1.582613e+02 1.8630e+41 1.7640e+41
1.588400e+02 1.8460e+41 1.7480e+41
1.594187e+02 1.8290e+41 1.7320e+41
1.599974e+02 1.8120e+41 1.7160e+41
1.605761e+02 1.7960e+41 1.7000e+41
1.611548e+02 1.7790e+41 1.6840e+41
1.617335e+02 1.7630e+41 1.6690e+41
1.623122e+02 1.7470e+41 1.6530e+41
1.628910e+02 1.7310e+41 1.6380e+41
1.634697e+02 1.7150e+41 1.6230e+41
1.640484e+02 1.7000e+41 1.6090e+41
1.646271e+02 1.6850e+41 1.5940e+41
1.652058e+02 1.6690e+41 1.5800e+41
1.657845e+02 1.6550e+41 1.5650e+41
1.663632e+02 1.6400e+41 1.5510e+41
1.669419e+02 1.6250e+41 1.5370e+41
1.675206e+02 1.6110e+41 1.5240e+41
1.680993e+02 1.5970e+41 1.5100e+41
1.686780e+02 1.5820e+41 1.4970e+41
1.692567e+02 1.5690e+41 1.4830e+41
1.698354e+02 1.5550e+41 1.4700e+41
1.704141e+02 1.5410e+41 1.4570e+41
1.709928e+02 1.5280e+41 1.4440e+41
1.715715e+02 1.5140e+41 1.4320e+41
1.721502e+02 1.5010e+41 1.4190e+41
1.727289e+02 1.4880e+41 1.4070e+41
1.733076e+02 1.4750e+41 1.3950e+41
1.738863e+02 1.4630e+41 1.3820e+41
1.744650e+02 1.4500e+41 1.3700e+41
1.750437e+02 1.4380e+41 1.3590e+41
1.756224e+02 1.4250e+41 1.3470e+41
1.762011e+02 1.4130e+41 1.3350e+41
1.767798e+02 1.4010e+41 1.3240e+41
1.773585e+02 1.3890e+41 1.3120e+41
1.779372e+02 1.3780e+41 1.3010e+41
1.785160e+02 1.3660e+41 1.2900e+41
1.790947e+02 1.3540e+41 1.2790e+41
1.796734e+02 1.3430e+41 1.2680e+41
1.802521e+02 1.3320e+41 1.2580e+41
1.808308e+02 1.3210e+41 1.2470e+41
1.814095e+02 1.3100e+41 1.2360e+41
1.819882e+02 1.2990e+41 1.2260e+41
1.825669e+02 1.2880e+41 1.2160e+41
1.831456e+02 1.2770e+41 1.2050e+41
1.837243e+02 1.2670e+41 1.1950e+41
1.843030e+02 1.2560e+41 1.1850e+41
1.848817e+02 1.2460e+41 1.1750e+41
1.854604e+02 1.2360e+41 1.1660e+41
1.860391e+02 1.2260e+41 1.1560e+41
1.866178e+02 1.2160e+41 1.1470e+41
1.871965e+02 1.2060e+41 1.1370e+41
1.877752e+02 1.1960e+41 1.1280e+41
1.883539e+02 1.1860e+41 1.1180e+41
1.889326e+02 1.1770e+41 1.1090e+41
1.895113e+02 1.1670e+41 1.1000e+41
1.900900e+02 1.1580e+41 1.0910e+41
1.906687e+02 1.1480e+41 1.0820e+41
1.912474e+02 1.1390e+41 1.0740e+41
1.918261e+02 1.1300e+41 1.0650e+41
1.924048e+02 1.1210e+41 1.0560e+41
1.929835e+02 1.1120e+41 1.0480e+41
1.935622e+02 1.1030e+41 1.0390e+41
1.941410e+02 1.0950e+41 1.0310e+41
1.947197e+02 1.0860e+41 1.0230e+41
1.952984e+02 1.0770e+41 1.0150e+41
1.958771e+02 1.0690e+41 1.0070e+41
1.964558e+02 1.0600e+41 9.9840e+40
1.970345e+02 1.0520e+41 9.9050e+40
1.976132e+02 1.0440e+41 9.8260e+40
1.981919e+02 1.0360e+41 9.7490e+40
1.987706e+02 1.0280e+41 9.6710e+40
1.993493e+02 1.0200e+41 9.5950e+40
1.999280e+02 1.0120e+41 9.5200e+40
2.005067e+02 1.0040e+41 9.4450e+40
2.010854e+02 9.9610e+40 9.3710e+40
2.016641e+02 9.8840e+40 9.2970e+40
2.022428e+02 9.8080e+40 9.2250e+40
2.028215e+02 9.7330e+40 9.1530e+40
2.034002e+02 9.6580e+40 9.0810e+40
2.039789e+02 9.5850e+40 9.0110e+40
2.045576e+02 9.5110e+40 8.9410e+40
2.051363e+02 9.4390e+40 8.8720e+40
2.057150e+02 9.3670e+40 8.8030e+40
2.062937e+02 9.2960e+40 8.7350e+40
2.068724e+02 9.2260e+40 8.6680e+40
2.074511e+02 9.1560e+40 8.6010e+40
2.080298e+02 9.0870e+40 8.5360e+40
2.086085e+02 9.0180e+40 8.4700e+40
2.091872e+02 8.9510e+40 8.4060e+40
2.097660e+02 8.8840e+40 8.3410e+40
2.103447e+02 8.8170e+40 8.2780e+40
2.109234e+02 8.7510e+40 8.2150e+40
2.115021e+02 8.6860e+40 8.1530e+40
2.120808e+02 8.6210e+40 8.0910e+40
2.126595e+02 8.5570e+40 8.0300e+40
2.132382e+02 8.4940e+40 7.9690e+40
2.138169e+02 8.4310e+40 7.9090e+40
2.143956e+02 8.3690e+40 7.8500e+40
2.149743e+02 8.3070e+40 7.7910e+40
2.155530e+02 8.2460e+40 7.7320e+40
2.161317e+02 8.1850e+40 7.6740e+40
