#NTIMES: 186
#time[d] Lbol[erg/s] Edep[erg/s]
9.8687e-01 1.7173e+40 4.0235e+43
1.0089e+00 1.5963e+40 4.0170e+43
1.0313e+00 1.4512e+40 4.0088e+43
1.0543e+00 1.2619e+40 4.0003e+43
1.0778e+00 1.0665e+40 3.9917e+43
1.1018e+00 8.9467e+39 3.9830e+43
1.1263e+00 7.2396e+39 3.9741e+43
1.1514e+00 5.4746e+39 3.9650e+43
1.1771e+00 3.9903e+39 3.9557e+43
1.2033e+00 3.6290e+39 3.9462e+43
1.2301e+00 3.6945e+39 3.9366e+43
1.2575e+00 3.6931e+39 3.9268e+43
1.2855e+00 3.8608e+39 3.9167e+43
1.3142e+00 4.2486e+39 3.9065e+43
1.3434e+00 4.5835e+39 3.8961e+43
1.3734e+00 4.7281e+39 3.8855e+43
1.4039e+00 5.1106e+39 3.8747e+43
1.4352e+00 5.6007e+39 3.8637e+43
1.4672e+00 5.8455e+39 3.8525e+43
1.4999e+00 6.7264e+39 3.8411e+43
1.5333e+00 7.6094e+39 3.8295e+43
1.5674e+00 8.4265e+39 3.8177e+43
1.6024e+00 9.7784e+39 3.8056e+43
1.6381e+00 1.0648e+40 3.7933e+43
1.6745e+00 1.1964e+40 3.7809e+43
1.7118e+00 1.4609e+40 3.7681e+43
1.7500e+00 1.5958e+40 3.7552e+43
1.7890e+00 1.9001e+40 3.7420e+43
1.8288e+00 2.1609e+40 3.7286e+43
1.8696e+00 2.5038e+40 3.7149e+43
1.9112e+00 2.6501e+40 3.7010e+43
1.9538e+00 3.1897e+40 3.6869e+43
1.9973e+00 3.4861e+40 3.6725e+43
2.0418e+00 3.9851e+40 3.6579e+43
2.0873e+00 4.3440e+40 3.6430e+43
2.1338e+00 4.8501e+40 3.6278e+43
2.1813e+00 5.3818e+40 3.6125e+43
2.2299e+00 6.0135e+40 3.5968e+43
2.2796e+00 6.4097e+40 3.5809e+43
2.3303e+00 7.1614e+40 3.5647e+43
2.3823e+00 7.8151e+40 3.5483e+43
2.4353e+00 8.3639e+40 3.5316e+43
2.4896e+00 9.2590e+40 3.5146e+43
2.5450e+00 1.0050e+41 3.4973e+43
2.6017e+00 1.1011e+41 3.4798e+43
2.6597e+00 1.1864e+41 3.4620e+43
2.7189e+00 1.2917e+41 3.4439e+43
2.7795e+00 1.3976e+41 3.4255e+43
2.8414e+00 1.5209e+41 3.4069e+43
2.9047e+00 1.6701e+41 3.3880e+43
2.9694e+00 1.7986e+41 3.3688e+43
3.0356e+00 1.9245e+41 3.3493e+43
3.1032e+00 2.0725e+41 3.3294e+43
3.1723e+00 2.2596e+41 3.3094e+43
3.2430e+00 2.4543e+41 3.2890e+43
3.3152e+00 2.6842e+41 3.2684e+43
3.3891e+00 2.8689e+41 3.2474e+43
3.4646e+00 3.0904e+41 3.2262e+43
3.5417e+00 3.3714e+41 3.2046e+43
3.6206e+00 3.6273e+41 3.1828e+43
3.7013e+00 3.9092e+41 3.1607e+43
3.7837e+00 4.1840e+41 3.1383e+43
3.8680e+00 4.5377e+41 3.1156e+43
3.9542e+00 4.9278e+41 3.0926e+43
4.0423e+00 5.2652e+41 3.0694e+43
4.1323e+00 5.6808e+41 3.0458e+43
4.2244e+00 6.1105e+41 3.0219e+43
4.3185e+00 6.6040e+41 2.9978e+43
4.4147e+00 7.1024e+41 2.9734e+43
4.5130e+00 7.6805e+41 2.9487e+43
4.6135e+00 8.2772e+41 2.9237e+43
4.7163e+00 8.8543e+41 2.8985e+43
4.8214e+00 9.5473e+41 2.8729e+43
4.9288e+00 1.0280e+42 2.8471e+43
5.0386e+00 1.1098e+42 2.8210e+43
5.1508e+00 1.1940e+42 2.7947e+43
5.2655e+00 1.2858e+42 2.7681e+43
5.3828e+00 1.3897e+42 2.7412e+43
5.5028e+00 1.5102e+42 2.7141e+43
5.6253e+00 1.6139e+42 2.6867e+43
5.7506e+00 1.7608e+42 2.6591e+43
5.8787e+00 1.8938e+42 2.6312e+43
6.0097e+00 2.0168e+42 2.6031e+43
6.1436e+00 2.1690e+42 2.5747e+43
6.2804e+00 2.3248e+42 2.5462e+43
6.4203e+00 2.4922e+42 2.5174e+43
6.5633e+00 2.6613e+42 2.4883e+43
6.7096e+00 2.8509e+42 2.4591e+43
6.8590e+00 3.0390e+42 2.4296e+43
7.0118e+00 3.2473e+42 2.4000e+43
7.1680e+00 3.4402e+42 2.3702e+43
7.3277e+00 3.6853e+42 2.3401e+43
7.4909e+00 3.9352e+42 2.3099e+43
7.6578e+00 4.1646e+42 2.2795e+43
7.8284e+00 4.4350e+42 2.2490e+43
8.0028e+00 4.7163e+42 2.2183e+43
8.1810e+00 4.9881e+42 2.1874e+43
8.3633e+00 5.2737e+42 2.1564e+43
8.5496e+00 5.5799e+42 2.1252e+43
8.7400e+00 5.8742e+42 2.0940e+43
8.9347e+00 6.1653e+42 2.0626e+43
9.1337e+00 6.4829e+42 2.0312e+43
9.3372e+00 6.7888e+42 1.9996e+43
9.5452e+00 7.0853e+42 1.9679e+43
9.7578e+00 7.3858e+42 1.9362e+43
9.9752e+00 7.6775e+42 1.9044e+43
1.0197e+01 7.9753e+42 1.8725e+43
1.0425e+01 8.3134e+42 1.8406e+43
1.0657e+01 8.6008e+42 1.8087e+43
1.0894e+01 8.9397e+42 1.7767e+43
1.1137e+01 9.1964e+42 1.7447e+43
1.1385e+01 9.5142e+42 1.7129e+43
1.1639e+01 9.7373e+42 1.6810e+43
1.1898e+01 1.0032e+43 1.6491e+43
1.2163e+01 1.0253e+43 1.6173e+43
1.2434e+01 1.0559e+43 1.5856e+43
1.2711e+01 1.0733e+43 1.5540e+43
1.2994e+01 1.0978e+43 1.5225e+43
1.3283e+01 1.1144e+43 1.4909e+43
1.3579e+01 1.1417e+43 1.4597e+43
1.3882e+01 1.1512e+43 1.4285e+43
1.4191e+01 1.1747e+43 1.3976e+43
1.4507e+01 1.1828e+43 1.3666e+43
1.4830e+01 1.2069e+43 1.3363e+43
1.5161e+01 1.2115e+43 1.3059e+43
1.5498e+01 1.2239e+43 1.2757e+43
1.5844e+01 1.2280e+43 1.2458e+43
1.6197e+01 1.2370e+43 1.2161e+43
1.6557e+01 1.2371e+43 1.1867e+43
1.6926e+01 1.2396e+43 1.1577e+43
1.7303e+01 1.2344e+43 1.1291e+43
1.7689e+01 1.2353e+43 1.1008e+43
1.8083e+01 1.2278e+43 1.0729e+43
1.8485e+01 1.2198e+43 1.0450e+43
1.8897e+01 1.2095e+43 1.0176e+43
1.9318e+01 1.1950e+43 9.9085e+42
1.9749e+01 1.1803e+43 9.6423e+42
2.0188e+01 1.1629e+43 9.3834e+42
2.0638e+01 1.1471e+43 9.1271e+42
2.1098e+01 1.1256e+43 8.8745e+42
2.1568e+01 1.1066e+43 8.6270e+42
2.2048e+01 1.0831e+43 8.3822e+42
2.2540e+01 1.0596e+43 8.1433e+42
2.3042e+01 1.0326e+43 7.9116e+42
2.3555e+01 1.0065e+43 7.6792e+42
2.4080e+01 9.7731e+42 7.4555e+42
2.4616e+01 9.4994e+42 7.2360e+42
2.5164e+01 9.2034e+42 7.0208e+42
2.5725e+01 8.9198e+42 6.8090e+42
2.6298e+01 8.6054e+42 6.6055e+42
2.6884e+01 8.3036e+42 6.4008e+42
2.7483e+01 8.0104e+42 6.2076e+42
2.8095e+01 7.7142e+42 6.0162e+42
2.8721e+01 7.4458e+42 5.8285e+42
2.9360e+01 7.1729e+42 5.6452e+42
3.0015e+01 6.9389e+42 5.4665e+42
3.0683e+01 6.7099e+42 5.2931e+42
3.1367e+01 6.4941e+42 5.1241e+42
3.2065e+01 6.2824e+42 4.9576e+42
3.2780e+01 6.0958e+42 4.8002e+42
3.3510e+01 5.9174e+42 4.6427e+42
3.4256e+01 5.7389e+42 4.4886e+42
3.5019e+01 5.5638e+42 4.3415e+42
3.5800e+01 5.3972e+42 4.1969e+42
3.6597e+01 5.2214e+42 4.0549e+42
3.7412e+01 5.0437e+42 3.9191e+42
3.8246e+01 4.8700e+42 3.7835e+42
3.9098e+01 4.6874e+42 3.6565e+42
3.9969e+01 4.4936e+42 3.5299e+42
4.0859e+01 4.3027e+42 3.4056e+42
4.1769e+01 4.1067e+42 3.2849e+42
4.2699e+01 3.9020e+42 3.1718e+42
4.3651e+01 3.6976e+42 3.0551e+42
4.4623e+01 3.4971e+42 2.9452e+42
4.5617e+01 3.2999e+42 2.8373e+42
4.6633e+01 3.1117e+42 2.7308e+42
4.7672e+01 2.9410e+42 2.6302e+42
4.8734e+01 2.7836e+42 2.5303e+42
4.9820e+01 2.6296e+42 2.4332e+42
5.0929e+01 2.4883e+42 2.3399e+42
5.2064e+01 2.3618e+42 2.2484e+42
5.3224e+01 2.2396e+42 2.1605e+42
5.4409e+01 2.1305e+42 2.0727e+42
5.5621e+01 2.0250e+42 1.9903e+42
5.6860e+01 1.9315e+42 1.9074e+42
5.8127e+01 1.8431e+42 1.8285e+42
