#NTIMES: 49
#TIMES[d]: 199.16 202.02 204.93 207.87 210.86 213.89 216.97 220.09 223.25 226.46 229.71 233.01 236.36 239.76 243.21 246.70 250.25 253.85 257.49 261.20 264.95 268.76 272.62 276.54 280.51 284.55 288.64 292.79 296.99 301.26 305.59 314.44 318.96 323.54 328.20 332.91 337.70 342.55 347.48 352.47 357.54 362.67 367.89 373.18 378.54 383.98 389.50 395.10 400.78
#
#TIME: 199.16
#NVEL 78
#vel_mid[km/s] temp[K] rho[gcc] ne[/cm^3] natom[/cm^3]
1060.83 4.2965e+03 4.7639e-16 6.0416e+06 3.5969e+06
1919.29 4.2032e+03 4.8793e-16 7.5218e+06 4.6444e+06
2581.60 4.5526e+03 4.0111e-16 7.5250e+06 4.1608e+06
3084.17 5.1662e+03 3.3582e-16 7.2468e+06 3.5769e+06
3472.46 5.6713e+03 2.5481e-16 6.0970e+06 2.8166e+06
3909.64 6.1344e+03 1.6424e-16 4.3700e+06 2.0016e+06
4148.46 6.1083e+03 1.3908e-16 3.7580e+06 1.8088e+06
4670.75 6.0281e+03 1.3350e-16 3.5920e+06 1.7854e+06
4956.05 6.2833e+03 1.2147e-16 3.3545e+06 1.5433e+06
5258.79 6.6724e+03 1.1010e-16 3.1472e+06 1.3140e+06
5580.02 7.0265e+03 1.0423e-16 3.0299e+06 1.1839e+06
5920.87 7.3229e+03 9.7612e-17 2.8575e+06 1.0765e+06
6282.54 7.5882e+03 8.9865e-17 2.6568e+06 9.7840e+05
6666.30 7.6435e+03 8.4072e-17 2.4941e+06 9.1448e+05
7073.50 7.6596e+03 7.7697e-17 2.3247e+06 8.5229e+05
7505.58 7.7252e+03 6.7958e-17 2.0696e+06 7.5845e+05
7964.05 7.5939e+03 5.9385e-17 1.8283e+06 6.8180e+05
8450.53 7.2214e+03 5.3528e-17 1.6588e+06 6.4111e+05
8966.72 6.8054e+03 4.6938e-17 1.4604e+06 5.9559e+05
9514.44 6.3770e+03 3.9803e-17 1.2369e+06 5.4323e+05
10095.62 5.9064e+03 3.3850e-17 1.0303e+06 5.0207e+05
10712.30 5.5031e+03 2.7729e-17 8.2695e+05 4.4726e+05
11366.65 5.2157e+03 2.1221e-17 6.2172e+05 3.6797e+05
12061.10 5.0648e+03 1.5162e-17 4.4471e+05 2.7704e+05
12793.43 4.9435e+03 1.1165e-17 3.2868e+05 2.1091e+05
13528.61 4.8974e+03 8.4435e-18 2.5093e+05 1.6351e+05
14194.74 4.8726e+03 6.3044e-18 1.9425e+05 1.2565e+05
14757.77 4.8428e+03 4.8253e-18 1.5848e+05 1.0014e+05
15240.48 4.8011e+03 4.6637e-18 1.5741e+05 1.0387e+05
15646.99 4.6332e+03 5.5629e-18 1.9434e+05 1.3645e+05
15960.30 4.6685e+03 7.7465e-18 2.6642e+05 2.0721e+05
16187.41 4.9054e+03 8.4957e-18 2.9560e+05 2.4075e+05
16354.17 4.9750e+03 8.3373e-18 3.0464e+05 2.4401e+05
16484.18 5.0632e+03 7.3309e-18 2.7644e+05 2.1839e+05
16593.12 5.3509e+03 6.0954e-18 2.3159e+05 1.8344e+05
16691.99 5.4243e+03 5.2451e-18 2.0400e+05 1.5907e+05
16788.59 5.3736e+03 4.6856e-18 1.9277e+05 1.4311e+05
16888.37 5.5068e+03 4.2402e-18 1.7609e+05 1.3039e+05
16998.79 5.5965e+03 3.8167e-18 1.6116e+05 1.1823e+05
17146.37 5.6698e+03 3.3827e-18 1.4782e+05 1.0554e+05
17415.23 5.8244e+03 2.7760e-18 1.2261e+05 8.7261e+04
17888.12 5.7471e+03 1.9875e-18 9.6433e+04 6.3050e+04
18532.37 5.8206e+03 1.5016e-18 7.4973e+04 4.7881e+04
19260.76 5.9612e+03 1.1079e-18 5.6142e+04 3.5418e+04
20034.10 6.0977e+03 7.7479e-19 4.2118e+04 2.4788e+04
20838.00 6.2470e+03 5.5045e-19 3.1753e+04 1.7621e+04
21647.97 6.4271e+03 4.1875e-19 2.4790e+04 1.3418e+04
22447.94 7.0405e+03 3.0103e-19 1.7131e+04 9.6637e+03
23245.88 7.1871e+03 2.1262e-19 1.3619e+04 6.8506e+03
24052.47 8.0651e+03 1.5579e-19 9.8349e+03 5.0547e+03
24867.72 8.3972e+03 1.1952e-19 7.8257e+03 3.9250e+03
25698.86 9.0622e+03 9.2889e-20 6.2765e+03 3.1086e+03
26587.16 9.8713e+03 7.0106e-20 4.8618e+03 2.4141e+03
27637.54 1.0936e+04 5.0142e-20 4.0500e+03 1.8041e+03
28986.97 1.2362e+04 3.3748e-20 2.8553e+03 1.2935e+03
#TIME: 202.02
#NVEL 78
#vel_mid[km/s] temp[K] rho[gcc] ne[/cm^3] natom[/cm^3]
1060.83 4.2649e+03 4.5642e-16 5.6915e+06 3.4458e+06
1919.29 4.1680e+03 4.6748e-16 7.2060e+06 4.4486e+06
2581.60 4.5200e+03 3.8430e-16 7.2101e+06 3.9863e+06
3084.17 5.1405e+03 3.2174e-16 6.9198e+06 3.4281e+06
3472.46 5.6465e+03 2.4413e-16 5.8323e+06 2.6991e+06
3909.64 6.1067e+03 1.5736e-16 4.1894e+06 1.9180e+06
4148.46 6.0764e+03 1.3325e-16 3.5926e+06 1.7333e+06
4670.75 5.9977e+03 1.2790e-16 3.4339e+06 1.7107e+06
4956.05 6.2561e+03 1.1638e-16 3.2212e+06 1.4788e+06
5258.79 6.6420e+03 1.0549e-16 3.0114e+06 1.2591e+06
5580.02 7.0026e+03 9.9866e-17 2.9037e+06 1.1345e+06
5920.87 7.2963e+03 9.3521e-17 2.7341e+06 1.0315e+06
6282.54 7.5700e+03 8.6098e-17 2.5459e+06 9.3749e+05
6666.30 7.6269e+03 8.0549e-17 2.3929e+06 8.7644e+05
7073.50 7.6451e+03 7.4441e-17 2.2278e+06 8.1672e+05
7505.58 7.7194e+03 6.5110e-17 1.9848e+06 7.2669e+05
7964.05 7.5745e+03 5.6897e-17 1.7543e+06 6.5328e+05
8450.53 7.1985e+03 5.1285e-17 1.5911e+06 6.1418e+05
8966.72 6.7865e+03 4.4971e-17 1.4013e+06 5.7078e+05
9514.44 6.3462e+03 3.8135e-17 1.1860e+06 5.2052e+05
10095.62 5.8754e+03 3.2431e-17 9.8786e+05 4.8106e+05
10712.30 5.4706e+03 2.6567e-17 7.9106e+05 4.2855e+05
11366.65 5.1878e+03 2.0331e-17 5.9395e+05 3.5260e+05
12061.10 5.0360e+03 1.4527e-17 4.2571e+05 2.6544e+05
12793.43 4.9081e+03 1.0698e-17 3.1365e+05 2.0207e+05
13528.61 4.8785e+03 8.0897e-18 2.4041e+05 1.5665e+05
14194.74 4.8428e+03 6.0402e-18 1.8576e+05 1.2039e+05
14757.77 4.8404e+03 4.6231e-18 1.4785e+05 9.5948e+04
15240.48 4.7399e+03 4.4682e-18 1.5164e+05 9.9515e+04
15646.99 4.5957e+03 5.3297e-18 1.8583e+05 1.3073e+05
15960.30 4.6377e+03 7.4218e-18 2.5436e+05 1.9852e+05
16187.41 4.8660e+03 8.1397e-18 2.8444e+05 2.3069e+05
16354.17 5.0132e+03 7.9879e-18 2.8446e+05 2.3379e+05
16484.18 5.0845e+03 7.0236e-18 2.5975e+05 2.0920e+05
16593.12 5.2801e+03 5.8399e-18 2.2282e+05 1.7575e+05
16691.99 5.4649e+03 5.0253e-18 1.9183e+05 1.5240e+05
16788.59 5.4329e+03 4.4892e-18 1.8071e+05 1.3711e+05
16888.37 5.5538e+03 4.0625e-18 1.6513e+05 1.2494e+05
16998.79 5.5450e+03 3.6568e-18 1.5559e+05 1.1327e+05
17146.37 5.6516e+03 3.2409e-18 1.4048e+05 1.0112e+05
17415.23 5.7530e+03 2.6596e-18 1.1859e+05 8.3611e+04
17888.12 5.7706e+03 1.9042e-18 9.1169e+04 6.0406e+04
18532.37 5.9100e+03 1.4387e-18 6.9870e+04 4.5875e+04
19260.76 5.9997e+03 1.0615e-18 5.3551e+04 3.3927e+04
20034.10 6.1364e+03 7.4232e-19 3.8651e+04 2.3750e+04
20838.00 6.1961e+03 5.2738e-19 3.0246e+04 1.6883e+04
21647.97 6.2663e+03 4.0120e-19 2.3821e+04 1.2855e+04
22447.94 6.9324e+03 2.8841e-19 1.6743e+04 9.2585e+03
23245.88 7.4996e+03 2.0371e-19 1.1850e+04 6.5622e+03
24052.47 8.0228e+03 1.4926e-19 9.0845e+03 4.8429e+03
24867.72 8.3423e+03 1.1451e-19 7.5269e+03 3.7601e+03
25698.86 9.1583e+03 8.8996e-20 6.0352e+03 2.9778e+03
26587.16 9.6581e+03 6.7168e-20 5.0536e+03 2.3128e+03
27637.54 1.0804e+04 4.8041e-20 3.6781e+03 1.7284e+03
28986.97 1.2889e+04 3.2333e-20 2.7029e+03 1.2391e+03
#TIME: 204.93
#NVEL 78
#vel_mid[km/s] temp[K] rho[gcc] ne[/cm^3] natom[/cm^3]
1060.83 4.2300e+03 4.3729e-16 5.4596e+06 3.3017e+06
1919.29 4.1310e+03 4.4789e-16 6.8811e+06 4.2627e+06
2581.60 4.4880e+03 3.6819e-16 6.9086e+06 3.8204e+06
3084.17 5.1125e+03 3.0826e-16 6.6121e+06 3.2851e+06
3472.46 5.6234e+03 2.3390e-16 5.5914e+06 2.5862e+06
3909.64 6.0779e+03 1.5076e-16 4.0002e+06 1.8378e+06
4148.46 6.0451e+03 1.2766e-16 3.4382e+06 1.6608e+06
4670.75 5.9654e+03 1.2254e-16 3.2889e+06 1.6391e+06
4956.05 6.2272e+03 1.1150e-16 3.0878e+06 1.4170e+06
5258.79 6.6160e+03 1.0107e-16 2.8846e+06 1.2065e+06
5580.02 6.9768e+03 9.5680e-17 2.7816e+06 1.0871e+06
5920.87 7.2778e+03 8.9602e-17 2.6244e+06 9.8842e+05
6282.54 7.5447e+03 8.2490e-17 2.4376e+06 8.9833e+05
6666.30 7.6124e+03 7.7173e-17 2.2936e+06 8.3982e+05
7073.50 7.6325e+03 7.1321e-17 2.1371e+06 7.8261e+05
7505.58 7.6980e+03 6.2381e-17 1.9006e+06 6.9629e+05
7964.05 7.5531e+03 5.4512e-17 1.6809e+06 6.2594e+05
8450.53 7.1778e+03 4.9135e-17 1.5266e+06 5.8863e+05
8966.72 6.7595e+03 4.3086e-17 1.3412e+06 5.4684e+05
9514.44 6.3181e+03 3.6537e-17 1.1358e+06 4.9878e+05
10095.62 5.8450e+03 3.1072e-17 9.4653e+05 4.6094e+05
10712.30 5.4374e+03 2.5454e-17 7.5815e+05 4.1059e+05
11366.65 5.1531e+03 1.9479e-17 5.7007e+05 3.3782e+05
12061.10 5.0059e+03 1.3918e-17 4.0706e+05 2.5432e+05
12793.43 4.8898e+03 1.0249e-17 2.9978e+05 1.9360e+05
13528.61 4.8546e+03 7.7506e-18 2.2919e+05 1.5009e+05
14194.74 4.8224e+03 5.7871e-18 1.7734e+05 1.1534e+05
14757.77 4.8242e+03 4.4294e-18 1.4288e+05 9.1923e+04
15240.48 4.7025e+03 4.2810e-18 1.4510e+05 9.5352e+04
15646.99 4.5701e+03 5.1064e-18 1.7565e+05 1.2524e+05
15960.30 4.6616e+03 7.1108e-18 2.4013e+05 1.9020e+05
16187.41 4.8290e+03 7.7985e-18 2.7186e+05 2.2104e+05
16354.17 4.9234e+03 7.6531e-18 2.7519e+05 2.2401e+05
16484.18 4.9827e+03 6.7293e-18 2.5019e+05 2.0044e+05
16593.12 5.2365e+03 5.5952e-18 2.1430e+05 1.6838e+05
16691.99 5.4999e+03 4.8147e-18 1.8547e+05 1.4601e+05
16788.59 5.3969e+03 4.3010e-18 1.7457e+05 1.3136e+05
16888.37 5.4921e+03 3.8923e-18 1.5904e+05 1.1970e+05
16998.79 5.5526e+03 3.5035e-18 1.4842e+05 1.0852e+05
17146.37 5.6025e+03 3.1051e-18 1.3388e+05 9.6875e+04
17415.23 5.7752e+03 2.5482e-18 1.1181e+05 8.0104e+04
17888.12 5.7770e+03 1.8244e-18 8.6186e+04 5.7868e+04
18532.37 5.7603e+03 1.3784e-18 6.7156e+04 4.3958e+04
19260.76 6.0093e+03 1.0170e-18 5.0784e+04 3.2511e+04
20034.10 6.0589e+03 7.1121e-19 3.7529e+04 2.2756e+04
20838.00 6.2200e+03 5.0528e-19 2.8743e+04 1.6175e+04
21647.97 6.3795e+03 3.8438e-19 2.2706e+04 1.2316e+04
22447.94 6.8912e+03 2.7632e-19 1.6260e+04 8.8710e+03
23245.88 7.2135e+03 1.9517e-19 1.2509e+04 6.2878e+03
24052.47 7.8780e+03 1.4301e-19 9.1256e+03 4.6401e+03
24867.72 8.1157e+03 1.0971e-19 7.3590e+03 3.6025e+03
25698.86 9.1319e+03 8.5266e-20 5.6784e+03 2.8530e+03
26587.16 9.7050e+03 6.4353e-20 4.5832e+03 2.2160e+03
27637.54 1.0667e+04 4.6027e-20 3.5467e+03 1.6559e+03
28986.97 1.2539e+04 3.0978e-20 2.6370e+03 1.1873e+03
#TIME: 207.87
#NVEL 78
#vel_mid[km/s] temp[K] rho[gcc] ne[/cm^3] natom[/cm^3]
1060.83 4.1906e+03 4.1897e-16 5.2558e+06 3.1628e+06
1919.29 4.0940e+03 4.2912e-16 6.5698e+06 4.0844e+06
2581.60 4.4562e+03 3.5276e-16 6.6119e+06 3.6607e+06
3084.17 5.0863e+03 2.9534e-16 6.3322e+06 3.1478e+06
3472.46 5.5993e+03 2.2409e-16 5.3536e+06 2.4784e+06
3909.64 6.0446e+03 1.4444e-16 3.8163e+06 1.7611e+06
4148.46 6.0139e+03 1.2231e-16 3.2944e+06 1.5915e+06
4670.75 5.9329e+03 1.1741e-16 3.1498e+06 1.5708e+06
4956.05 6.1928e+03 1.0683e-16 2.9580e+06 1.3579e+06
5258.79 6.5871e+03 9.6832e-17 2.7642e+06 1.1561e+06
5580.02 6.9504e+03 9.1670e-17 2.6640e+06 1.0418e+06
5920.87 7.2645e+03 8.5847e-17 2.5147e+06 9.4719e+05
6282.54 7.5258e+03 7.9033e-17 2.3382e+06 8.6100e+05
6666.30 7.5961e+03 7.3939e-17 2.1990e+06 8.0476e+05
7073.50 7.6112e+03 6.8332e-17 2.0462e+06 7.4987e+05
7505.58 7.6669e+03 5.9767e-17 1.8188e+06 6.6737e+05
7964.05 7.5361e+03 5.2227e-17 1.6126e+06 5.9988e+05
8450.53 7.1542e+03 4.7076e-17 1.4626e+06 5.6400e+05
8966.72 6.7297e+03 4.1280e-17 1.2861e+06 5.2407e+05
9514.44 6.2911e+03 3.5005e-17 1.0871e+06 4.7791e+05
10095.62 5.8139e+03 2.9770e-17 9.0490e+05 4.4165e+05
10712.30 5.4057e+03 2.4387e-17 7.2775e+05 3.9341e+05
11366.65 5.1272e+03 1.8663e-17 5.4591e+05 3.2365e+05
12061.10 4.9817e+03 1.3335e-17 3.8902e+05 2.4366e+05
12793.43 4.8684e+03 9.8196e-18 2.8656e+05 1.8550e+05
13528.61 4.8344e+03 7.4258e-18 2.1963e+05 1.4381e+05
14194.74 4.7880e+03 5.5445e-18 1.7208e+05 1.1050e+05
14757.77 4.7960e+03 4.2437e-18 1.3687e+05 8.8072e+04
15240.48 4.6825e+03 4.1015e-18 1.3800e+05 9.1356e+04
15646.99 4.5912e+03 4.8924e-18 1.6570e+05 1.2002e+05
15960.30 4.6437e+03 6.8128e-18 2.3218e+05 1.8223e+05
16187.41 4.7884e+03 7.4717e-18 2.6066e+05 2.1177e+05
16354.17 4.9615e+03 7.3323e-18 2.6194e+05 2.1456e+05
16484.18 4.9882e+03 6.4472e-18 2.3704e+05 1.9200e+05
16593.12 5.2444e+03 5.3607e-18 2.0575e+05 1.6132e+05
16691.99 5.4223e+03 4.6129e-18 1.7725e+05 1.3989e+05
16788.59 5.2705e+03 4.1208e-18 1.7549e+05 1.2585e+05
16888.37 5.5016e+03 3.7291e-18 1.5184e+05 1.1469e+05
16998.79 5.5468e+03 3.3567e-18 1.4094e+05 1.0398e+05
17146.37 5.4669e+03 2.9749e-18 1.2969e+05 9.2814e+04
17415.23 5.6544e+03 2.4414e-18 1.0744e+05 7.6748e+04
17888.12 5.7670e+03 1.7479e-18 8.2037e+04 5.5449e+04
18532.37 5.8097e+03 1.3206e-18 6.4524e+04 4.2118e+04
19260.76 5.8911e+03 9.7438e-19 4.9055e+04 3.1147e+04
20034.10 5.9537e+03 6.8140e-19 3.6038e+04 2.1802e+04
20838.00 6.1645e+03 4.8410e-19 2.7576e+04 1.5497e+04
21647.97 6.4029e+03 3.6828e-19 2.0938e+04 1.1801e+04
22447.94 6.6968e+03 2.6474e-19 1.6272e+04 8.4986e+03
23245.88 7.0609e+03 1.8699e-19 1.2047e+04 6.0247e+03
24052.47 7.8518e+03 1.3701e-19 8.6739e+03 4.4450e+03
24867.72 7.9834e+03 1.0511e-19 7.1450e+03 3.4513e+03
25698.86 9.0965e+03 8.1693e-20 5.4177e+03 2.7338e+03
26587.16 9.7033e+03 6.1656e-20 4.3201e+03 2.1231e+03
27637.54 1.0524e+04 4.4098e-20 3.4170e+03 1.5865e+03
28986.97 1.2498e+04 2.9680e-20 2.3850e+03 1.1376e+03
#TIME: 210.86
#NVEL 78
#vel_mid[km/s] temp[K] rho[gcc] ne[/cm^3] natom[/cm^3]
1060.83 4.1534e+03 4.0141e-16 5.0355e+06 3.0305e+06
1919.29 4.0570e+03 4.1113e-16 6.2887e+06 3.9126e+06
2581.60 4.4210e+03 3.3798e-16 6.3157e+06 3.5068e+06
3084.17 5.0618e+03 2.8296e-16 6.0660e+06 3.0163e+06
3472.46 5.5736e+03 2.1470e-16 5.1154e+06 2.3747e+06
3909.64 6.0123e+03 1.3839e-16 3.6592e+06 1.6874e+06
4148.46 5.9832e+03 1.1719e-16 3.1430e+06 1.5249e+06
4670.75 5.9025e+03 1.1249e-16 3.0136e+06 1.5049e+06
4956.05 6.1606e+03 1.0235e-16 2.8153e+06 1.3011e+06
5258.79 6.5587e+03 9.2773e-17 2.6460e+06 1.1079e+06
5580.02 6.9281e+03 8.7828e-17 2.5550e+06 9.9819e+05
5920.87 7.2402e+03 8.2249e-17 2.4060e+06 9.0773e+05
6282.54 7.5081e+03 7.5721e-17 2.2401e+06 8.2506e+05
6666.30 7.5756e+03 7.0840e-17 2.1060e+06 7.7122e+05
7073.50 7.5839e+03 6.5468e-17 1.9590e+06 7.1865e+05
7505.58 7.6471e+03 5.7262e-17 1.7453e+06 6.3948e+05
7964.05 7.5187e+03 5.0039e-17 1.5460e+06 5.7486e+05
8450.53 7.1271e+03 4.5103e-17 1.4013e+06 5.4047e+05
8966.72 6.7003e+03 3.9550e-17 1.2340e+06 5.0211e+05
9514.44 6.2622e+03 3.3538e-17 1.0412e+06 4.5790e+05
10095.62 5.7888e+03 2.8522e-17 8.6448e+05 4.2316e+05
10712.30 5.3843e+03 2.3365e-17 6.9600e+05 3.7694e+05
11366.65 5.1102e+03 1.7881e-17 5.2051e+05 3.1009e+05
12061.10 4.9488e+03 1.2776e-17 3.7286e+05 2.3345e+05
12793.43 4.8269e+03 9.4081e-18 2.7638e+05 1.7772e+05
13528.61 4.7973e+03 7.1146e-18 2.1182e+05 1.3777e+05
14194.74 4.8092e+03 5.3122e-18 1.6028e+05 1.0589e+05
14757.77 4.7950e+03 4.0659e-18 1.3058e+05 8.4378e+04
15240.48 4.6643e+03 3.9297e-18 1.3203e+05 8.7522e+04
15646.99 4.5641e+03 4.6873e-18 1.6085e+05 1.1497e+05
15960.30 4.5799e+03 6.5272e-18 2.2337e+05 1.7459e+05
16187.41 4.7843e+03 7.1585e-18 2.4846e+05 2.0287e+05
16354.17 4.8841e+03 7.0250e-18 2.5282e+05 2.0560e+05
16484.18 4.9637e+03 6.1770e-18 2.2839e+05 1.8394e+05
16593.12 5.1449e+03 5.1360e-18 2.0083e+05 1.5456e+05
16691.99 5.2242e+03 4.4196e-18 1.7311e+05 1.3403e+05
16788.59 5.2394e+03 3.9481e-18 1.6300e+05 1.2057e+05
16888.37 5.4991e+03 3.5729e-18 1.4649e+05 1.0987e+05
16998.79 5.5775e+03 3.2160e-18 1.3234e+05 9.9621e+04
17146.37 5.5817e+03 2.8503e-18 1.2390e+05 8.8927e+04
17415.23 5.6201e+03 2.3390e-18 1.0400e+05 7.3527e+04
17888.12 5.7848e+03 1.6747e-18 7.7893e+04 5.3122e+04
18532.37 5.7899e+03 1.2653e-18 6.1767e+04 4.0347e+04
19260.76 5.9087e+03 9.3354e-19 4.6896e+04 2.9845e+04
20034.10 5.9996e+03 6.5284e-19 3.4851e+04 2.0888e+04
20838.00 5.9953e+03 4.6382e-19 2.6486e+04 1.4846e+04
21647.97 6.2932e+03 3.5284e-19 2.0427e+04 1.1306e+04
22447.94 6.4996e+03 2.5365e-19 1.5911e+04 8.1428e+03
23245.88 7.1388e+03 1.7915e-19 1.1016e+04 5.7725e+03
24052.47 7.8956e+03 1.3127e-19 8.2559e+03 4.2587e+03
24867.72 8.2892e+03 1.0071e-19 6.6220e+03 3.3066e+03
25698.86 8.8768e+03 7.8269e-20 5.2304e+03 2.6197e+03
26587.16 9.6321e+03 5.9072e-20 4.1510e+03 2.0341e+03
27637.54 1.0636e+04 4.2250e-20 3.1863e+03 1.5200e+03
28986.97 1.2186e+04 2.8436e-20 2.3066e+03 1.0898e+03
#TIME: 213.89
#NVEL 78
#vel_mid[km/s] temp[K] rho[gcc] ne[/cm^3] natom[/cm^3]
1060.83 4.1201e+03 3.8458e-16 4.7458e+06 2.9041e+06
1919.29 4.0242e+03 3.9390e-16 5.9237e+06 3.7495e+06
2581.60 4.3888e+03 3.2381e-16 6.0338e+06 3.3599e+06
3084.17 5.0381e+03 2.7110e-16 5.8086e+06 2.8896e+06
3472.46 5.5505e+03 2.0570e-16 4.9065e+06 2.2755e+06
3909.64 5.9839e+03 1.3259e-16 3.4991e+06 1.6171e+06
4148.46 5.9509e+03 1.1228e-16 3.0129e+06 1.4612e+06
4670.75 5.8680e+03 1.0777e-16 2.8952e+06 1.4419e+06
4956.05 6.1293e+03 9.8062e-17 2.6884e+06 1.2467e+06
5258.79 6.5277e+03 8.8885e-17 2.5327e+06 1.0616e+06
5580.02 6.9010e+03 8.4148e-17 2.4432e+06 9.5659e+05
5920.87 7.2165e+03 7.8802e-17 2.3074e+06 8.6984e+05
6282.54 7.4794e+03 7.2547e-17 2.1440e+06 7.9066e+05
6666.30 7.5572e+03 6.7871e-17 2.0194e+06 7.3901e+05
7073.50 7.5621e+03 6.2724e-17 1.8779e+06 6.8859e+05
7505.58 7.6348e+03 5.4862e-17 1.6738e+06 6.1279e+05
7964.05 7.5060e+03 4.7941e-17 1.4835e+06 5.5077e+05
8450.53 7.1058e+03 4.3213e-17 1.3446e+06 5.1783e+05
8966.72 6.6760e+03 3.7893e-17 1.1857e+06 4.8112e+05
9514.44 6.2321e+03 3.2133e-17 1.0004e+06 4.3876e+05
10095.62 5.7601e+03 2.7327e-17 8.3310e+05 4.0547e+05
10712.30 5.3600e+03 2.2386e-17 6.6603e+05 3.6115e+05
11366.65 5.0799e+03 1.7131e-17 4.9892e+05 2.9710e+05
12061.10 4.9232e+03 1.2241e-17 3.5607e+05 2.2368e+05
12793.43 4.7900e+03 9.0138e-18 2.6331e+05 1.7027e+05
13528.61 4.7836e+03 6.8164e-18 2.0015e+05 1.3200e+05
14194.74 4.7691e+03 5.0895e-18 1.5578e+05 1.0143e+05
14757.77 4.7334e+03 3.8955e-18 1.2542e+05 8.0849e+04
15240.48 4.6747e+03 3.7650e-18 1.2473e+05 8.3859e+04
15646.99 4.5384e+03 4.4909e-18 1.5338e+05 1.1017e+05
15960.30 4.5413e+03 6.2537e-18 2.1376e+05 1.6727e+05
16187.41 4.7578e+03 6.8585e-18 2.3824e+05 1.9436e+05
16354.17 4.8189e+03 6.7306e-18 2.4100e+05 1.9699e+05
16484.18 4.9277e+03 5.9182e-18 2.1800e+05 1.7626e+05
16593.12 5.1222e+03 4.9208e-18 1.9023e+05 1.4808e+05
16691.99 5.1802e+03 4.2343e-18 1.6706e+05 1.2842e+05
16788.59 5.1043e+03 3.7826e-18 1.5672e+05 1.1553e+05
16888.37 5.4837e+03 3.4231e-18 1.3933e+05 1.0528e+05
16998.79 5.5169e+03 3.0812e-18 1.2628e+05 9.5443e+04
17146.37 5.6416e+03 2.7308e-18 1.1518e+05 8.5203e+04
17415.23 5.6165e+03 2.2410e-18 9.9307e+04 7.0445e+04
17888.12 5.7339e+03 1.6045e-18 7.4801e+04 5.0893e+04
18532.37 5.7300e+03 1.2122e-18 5.9183e+04 3.8655e+04
19260.76 5.7498e+03 8.9442e-19 4.5354e+04 2.8591e+04
20034.10 6.0354e+03 6.2548e-19 3.2984e+04 2.0013e+04
20838.00 6.0640e+03 4.4438e-19 2.5502e+04 1.4224e+04
21647.97 6.3693e+03 3.3805e-19 1.9596e+04 1.0832e+04
22447.94 6.6462e+03 2.4302e-19 1.4386e+04 7.8017e+03
23245.88 7.0018e+03 1.7164e-19 1.0684e+04 5.5304e+03
24052.47 7.6242e+03 1.2577e-19 8.3175e+03 4.0810e+03
24867.72 8.3015e+03 9.6485e-20 6.1847e+03 3.1685e+03
25698.86 8.6353e+03 7.4989e-20 5.0961e+03 2.5094e+03
26587.16 9.3624e+03 5.6596e-20 4.0456e+03 1.9490e+03
27637.54 1.0696e+04 4.0480e-20 3.0324e+03 1.4563e+03
28986.97 1.2678e+04 2.7244e-20 2.4502e+03 1.0442e+03
#TIME: 216.97
#NVEL 78
#vel_mid[km/s] temp[K] rho[gcc] ne[/cm^3] natom[/cm^3]
1060.83 4.0838e+03 3.6847e-16 4.5552e+06 2.7816e+06
1919.29 3.9902e+03 3.7739e-16 5.7072e+06 3.5925e+06
2581.60 4.3559e+03 3.1024e-16 5.7726e+06 3.2195e+06
3084.17 5.0138e+03 2.5974e-16 5.5561e+06 2.7693e+06
3472.46 5.5280e+03 1.9708e-16 4.6899e+06 2.1805e+06
3909.64 5.9567e+03 1.2703e-16 3.3568e+06 1.5495e+06
4148.46 5.9181e+03 1.0757e-16 2.8768e+06 1.4001e+06
4670.75 5.8357e+03 1.0326e-16 2.7617e+06 1.3817e+06
4956.05 6.0932e+03 9.3952e-17 2.5824e+06 1.1945e+06
5258.79 6.4974e+03 8.5160e-17 2.4286e+06 1.0172e+06
5580.02 6.8802e+03 8.0621e-17 2.3440e+06 9.1660e+05
5920.87 7.2041e+03 7.5499e-17 2.2152e+06 8.3354e+05
6282.54 7.4679e+03 6.9507e-17 2.0600e+06 7.5766e+05
6666.30 7.5412e+03 6.5027e-17 1.9365e+06 7.0821e+05
7073.50 7.5567e+03 6.0096e-17 1.8044e+06 6.5997e+05
7505.58 7.6099e+03 5.2563e-17 1.6018e+06 5.8717e+05
7964.05 7.4860e+03 4.5932e-17 1.4208e+06 5.2789e+05
8450.53 7.0839e+03 4.1402e-17 1.2885e+06 4.9628e+05
8966.72 6.6470e+03 3.6305e-17 1.1359e+06 4.6102e+05
9514.44 6.2052e+03 3.0786e-17 9.5844e+05 4.2042e+05
10095.62 5.7296e+03 2.6181e-17 7.9843e+05 3.8848e+05
10712.30 5.3288e+03 2.1447e-17 6.3929e+05 3.4603e+05
11366.65 5.0428e+03 1.6413e-17 4.7896e+05 2.8466e+05
12061.10 4.8904e+03 1.1728e-17 3.4106e+05 2.1431e+05
12793.43 4.7673e+03 8.6360e-18 2.5072e+05 1.6314e+05
13528.61 4.6989e+03 6.5307e-18 1.9305e+05 1.2647e+05
14194.74 4.7419e+03 4.8762e-18 1.4884e+05 9.7186e+04
14757.77 4.6676e+03 3.7322e-18 1.2052e+05 7.7458e+04
15240.48 4.5653e+03 3.6072e-18 1.2026e+05 8.0340e+04
15646.99 4.4564e+03 4.3027e-18 1.4803e+05 1.0554e+05
15960.30 4.4846e+03 5.9916e-18 2.0572e+05 1.6027e+05
16187.41 4.6696e+03 6.5711e-18 2.2993e+05 1.8621e+05
