#NTIMES: 108
#TIMES[d]: 2.037028e+00 2.112455e+00 2.190675e+00 2.271792e+00 2.355913e+00 2.443148e+00 2.533613e+00 2.627428e+00 2.724717e+00 2.825608e+00 2.930235e+00 3.038736e+00 3.151255e+00 3.267940e+00 3.388946e+00 3.514432e+00 3.644565e+00 3.779516e+00 3.919465e+00 4.064595e+00 4.215100e+00 4.371177e+00 4.533034e+00 4.700883e+00 4.874948e+00 5.055458e+00 5.242653e+00 5.436778e+00 5.638092e+00 5.846861e+00 6.063359e+00 6.287873e+00 6.520702e+00 6.762152e+00 7.012541e+00 7.272203e+00 7.541479e+00 7.820726e+00 8.110313e+00 8.410623e+00 8.722052e+00 9.045013e+00 9.379933e+00 9.727255e+00 1.008744e+01 1.046096e+01 1.084831e+01 1.125000e+01 1.166656e+01 1.209856e+01 1.254655e+01 1.301112e+01 1.349289e+01 1.399251e+01 1.451063e+01 1.504793e+01 1.560513e+01 1.618296e+01 1.678218e+01 1.740360e+01 1.804802e+01 1.871630e+01 1.940933e+01 2.012802e+01 2.087333e+01 2.164623e+01 2.244774e+01 2.327894e+01 2.414092e+01 2.503481e+01 2.596181e+01 2.692312e+01 2.792004e+01 2.895387e+01 3.002597e+01 3.113778e+01 3.229075e+01 3.348642e+01 3.472636e+01 3.601222e+01 3.734568e+01 3.872852e+01 4.016256e+01 4.164970e+01 4.319192e+01 4.479123e+01 4.644977e+01 4.816972e+01 4.995336e+01 5.180304e+01 5.372120e+01 5.571040e+01 5.777325e+01 5.991249e+01 6.213094e+01 6.443153e+01 6.681731e+01 6.929144e+01 7.185717e+01 7.451791e+01 7.727716e+01 8.013859e+01 8.310597e+01 8.618323e+01 8.937444e+01 9.268381e+01 9.611572e+01 9.967470e+01 
#
#TIME: 2.037028e+00 
#NVEL: 115
#vel_mid[km/s] temp[K] rho[gcc] ne[/cm^3] natom[/cm^3]
4.386064e+02 3.827569e+04 4.497656e-10 2.168222e+13 5.067315e+12 
8.801961e+02 4.105036e+04 9.119168e-10 4.311457e+13 1.027525e+13 
8.922517e+02 4.040303e+04 7.030416e-10 3.461706e+13 7.917869e+12 
9.200313e+02 4.094921e+04 6.117978e-10 2.979180e+13 6.896364e+12 
9.688202e+02 3.956295e+04 4.767220e-10 2.354931e+13 5.379946e+12 
1.029396e+03 3.823024e+04 4.873925e-10 2.395567e+13 5.489387e+12 
1.092261e+03 3.905064e+04 4.875300e-10 2.382779e+13 5.491393e+12 
1.158981e+03 3.823894e+04 4.887259e-10 2.383666e+13 5.505450e+12 
1.229776e+03 3.894615e+04 4.917844e-10 2.368758e+13 5.547193e+12 
1.304896e+03 4.016454e+04 5.010431e-10 2.546635e+13 5.640535e+12 
1.384604e+03 4.171014e+04 5.160593e-10 2.673675e+13 5.811449e+12 
1.469181e+03 4.390817e+04 5.191532e-10 2.830034e+13 5.837915e+12 
1.558925e+03 4.592839e+04 5.084427e-10 2.820749e+13 5.707470e+12 
1.654150e+03 4.894685e+04 5.038687e-10 2.847896e+13 5.644540e+12 
1.755192e+03 5.149926e+04 5.034207e-10 2.894497e+13 5.629798e+12 
1.862406e+03 5.396166e+04 4.990916e-10 2.992676e+13 5.581854e+12 
1.976169e+03 5.683259e+04 4.945694e-10 3.111493e+13 5.517762e+12 
2.096881e+03 6.050101e+04 4.828481e-10 3.151710e+13 5.380192e+12 
2.224967e+03 6.425577e+04 4.563395e-10 3.055564e+13 5.077170e+12 
2.360877e+03 6.812656e+04 4.293417e-10 2.965555e+13 4.767582e+12 
2.505088e+03 7.215874e+04 4.102905e-10 2.962485e+13 4.549305e+12 
2.658109e+03 7.600776e+04 3.960711e-10 2.954353e+13 4.391818e+12 
2.820477e+03 7.868712e+04 3.766228e-10 2.861247e+13 4.171640e+12 
2.992763e+03 8.029194e+04 3.434992e-10 2.629605e+13 3.827859e+12 
3.175573e+03 8.021632e+04 3.022842e-10 2.321662e+13 3.396708e+12 
3.369550e+03 7.854098e+04 2.606359e-10 1.999258e+13 2.988114e+12 
3.575375e+03 7.535991e+04 2.159998e-10 1.650145e+13 2.569206e+12 
3.793773e+03 7.027457e+04 1.679996e-10 1.265805e+13 2.118319e+12 
4.025512e+03 6.551297e+04 1.422581e-10 1.055308e+13 1.916151e+12 
4.271406e+03 6.306639e+04 1.391491e-10 1.032051e+13 1.950643e+12 
4.532320e+03 6.269981e+04 1.365526e-10 1.008144e+13 1.897319e+12 
4.809172e+03 6.305583e+04 1.242487e-10 9.015403e+12 1.647158e+12 
5.102936e+03 6.352941e+04 1.126216e-10 8.017469e+12 1.407623e+12 
5.414644e+03 6.395099e+04 1.066192e-10 7.483822e+12 1.270540e+12 
5.745391e+03 6.389024e+04 9.984566e-11 6.932735e+12 1.156876e+12 
6.096342e+03 6.305739e+04 9.192046e-11 6.310299e+12 1.051571e+12 
6.468731e+03 6.201493e+04 8.599588e-11 5.852205e+12 9.833906e+11 
6.863867e+03 6.059795e+04 7.947483e-11 5.373374e+12 9.174091e+11 
7.283139e+03 5.835148e+04 6.951312e-11 4.668655e+12 8.161877e+11 
7.728022e+03 5.578087e+04 6.074410e-11 4.056225e+12 7.334038e+11 
8.200081e+03 5.321713e+04 5.475281e-11 3.637149e+12 6.899479e+11 
8.700974e+03 5.016769e+04 4.801208e-11 3.173690e+12 6.389918e+11 
9.232464e+03 4.628242e+04 4.071368e-11 2.743223e+12 5.803627e+11 
9.796417e+03 4.186716e+04 3.462443e-11 2.431867e+12 5.332738e+11 
1.039482e+04 3.682123e+04 2.836350e-11 2.036471e+12 4.725433e+11 
1.102978e+04 3.120768e+04 2.170614e-11 1.556760e+12 3.863883e+11 
1.170352e+04 2.552799e+04 1.551537e-11 1.129257e+12 2.893844e+11 
1.241868e+04 2.082927e+04 1.126815e-11 7.797072e+11 2.172194e+11 
1.316817e+04 1.705968e+04 7.875542e-12 4.741924e+11 1.552810e+11 
1.388905e+04 1.431568e+04 5.538271e-12 3.186524e+11 1.122541e+11 
1.450043e+04 1.228021e+04 4.424243e-12 2.304000e+11 9.324647e+10 
1.501511e+04 1.036917e+04 4.164961e-12 1.695813e+11 9.406320e+10 
1.546584e+04 8.284133e+03 4.640179e-12 1.695649e+11 1.153429e+11 
1.582815e+04 6.841816e+03 6.294268e-12 9.371840e+10 1.704311e+11 
1.609245e+04 5.800247e+03 6.951502e-12 5.257016e+10 1.989707e+11 
1.628237e+04 4.499453e+03 7.039701e-12 6.640242e+09 2.083910e+11 
1.642596e+04 3.973138e+03 6.334532e-12 7.852613e+08 1.908920e+11 
1.654240e+04 3.639293e+03 5.482446e-12 2.587275e+08 1.670123e+11 
1.664385e+04 3.543200e+03 4.903506e-12 1.505270e+07 1.504536e+11 
1.674015e+04 3.580082e+03 4.456252e-12 8.026306e+06 1.376800e+11 
1.683704e+04 3.307096e+03 4.176463e-12 2.130592e+06 1.299214e+11 
1.693972e+04 3.652052e+03 3.954602e-12 2.423456e+05 1.238379e+11 
1.705788e+04 3.513700e+03 4.383181e-12 1.301679e+04 1.387937e+11 
1.723487e+04 3.081051e+03 4.246949e-12 9.481435e+02 1.355105e+11 
1.759558e+04 2.344616e+03 2.262596e-12 3.160383e+03 7.260510e+10 
1.818065e+04 2.455878e+03 1.522572e-12 1.311389e+00 4.918143e+10 
1.888408e+04 8.409571e+02 1.106876e-12 4.889306e-02 3.588642e+10 
1.963744e+04 1.470779e+03 7.729025e-13 4.453637e-02 2.503059e+10 
2.043076e+04 1.134140e+03 5.361139e-13 3.989612e-02 1.743322e+10 
2.124524e+04 1.000820e+03 4.011182e-13 3.697151e-02 1.300496e+10 
2.205069e+04 1.023951e+03 2.913977e-13 3.325083e-02 9.508397e+09 
2.284519e+04 1.046253e+03 2.076506e-13 7.883066e-01 6.802745e+09 
2.364658e+04 1.065226e+03 1.512079e-13 8.660375e-01 4.996748e+09 
2.445835e+04 1.080299e+03 1.160270e-13 9.575017e-01 3.877326e+09 
2.527708e+04 1.095626e+03 9.201810e-14 1.056430e+00 3.130231e+09 
2.612065e+04 1.119315e+03 7.326385e-14 1.177731e+00 2.569004e+09 
2.705367e+04 1.000000e+02 5.702569e-14 1.345804e+00 2.085089e+09 
2.822140e+04 1.000000e+02 3.819574e-14 1.411958e+00 1.483679e+09 
2.975253e+04 1.000000e+02 2.032715e-14 1.118404e+00 8.412544e+08 
3.155178e+04 1.000000e+02 9.988837e-15 6.530859e-01 4.283392e+08 
3.347929e+04 1.000000e+02 4.734352e-15 2.843643e-01 2.058308e+08 
3.543911e+04 1.000000e+02 2.511796e-15 1.157060e-01 1.095392e+08 
3.730307e+04 1.000000e+02 1.495490e-15 1.546164e-07 6.518030e+07 
3.899822e+04 1.000000e+02 1.054719e-15 1.281903e-07 4.604920e+07 
4.050110e+04 1.000000e+02 7.612159e-16 1.083255e-07 3.329689e+07 
4.184592e+04 1.000000e+02 5.118639e-16 8.869030e-08 2.232715e+07 
4.308864e+04 1.000000e+02 3.374045e-16 7.199076e-08 1.472555e+07 
4.428714e+04 1.000000e+02 2.199229e-16 5.812064e-08 9.594090e+06 
4.548226e+04 1.000000e+02 1.474766e-16 4.759433e-08 6.426810e+06 
4.668639e+04 1.000000e+02 9.979087e-17 3.915069e-08 4.351985e+06 
4.790207e+04 1.000000e+02 6.825158e-17 3.237804e-08 2.975547e+06 
4.913111e+04 1.000000e+02 4.682041e-17 2.681712e-08 2.039375e+06 
5.037838e+04 1.000000e+02 3.222654e-17 2.224851e-08 1.405772e+06 
5.164686e+04 1.000000e+02 2.222160e-17 1.847493e-08 9.696220e+05 
5.293843e+04 1.000000e+02 1.534686e-17 1.535335e-08 6.689940e+05 
5.425290e+04 1.000000e+02 1.062736e-17 1.277640e-08 4.635347e+05 
5.558886e+04 1.000000e+02 7.365028e-18 1.063606e-08 3.218350e+05 
5.694142e+04 1.000000e+02 5.137670e-18 8.883376e-09 2.245725e+05 
5.830411e+04 1.000000e+02 3.590659e-18 7.426443e-09 1.566675e+05 
5.966620e+04 1.000000e+02 2.542946e-18 6.249761e-09 1.110298e+05 
6.101550e+04 1.000000e+02 1.811960e-18 5.275562e-09 7.914370e+04 
6.233719e+04 1.000000e+02 1.314611e-18 4.493583e-09 5.738520e+04 
6.361286e+04 1.000000e+02 9.687394e-19 3.857427e-09 4.230423e+04 
6.482466e+04 1.000000e+02 7.277267e-19 3.343327e-09 3.167903e+04 
6.595016e+04 1.000000e+02 5.633443e-19 2.941586e-09 2.459397e+04 
6.697182e+04 1.000000e+02 4.439565e-19 2.611342e-09 1.933141e+04 
6.787199e+04 1.000000e+02 3.655986e-19 2.369727e-09 1.595011e+04 
6.864160e+04 1.000000e+02 3.048652e-19 2.163945e-09 1.329876e+04 
6.927720e+04 1.000000e+02 2.091513e-19 1.792361e-09 9.119000e+03 
6.967325e+04 1.000000e+02 2.126991e-19 1.807504e-09 9.280780e+03 
6.984350e+04 1.000000e+02 2.072449e-19 1.784123e-09 9.047990e+03 
6.992880e+04 1.000000e+02 2.045250e-19 1.772533e-09 8.926550e+03 
6.997149e+04 1.000000e+02 1.998578e-19 1.751992e-09 8.714090e+03 
6.999249e+04 1.000000e+02 1.421566e-19 1.477726e-09 6.204110e+03 
6.999962e+04 1.000000e+02 1.355866e-19 1.440082e-09 5.890320e+03 
#
#TIME: 2.112455e+00 
#NVEL: 115
#vel_mid[km/s] temp[K] rho[gcc] ne[/cm^3] natom[/cm^3]
4.386064e+02 4.533702e+04 4.032876e-10 2.213614e+13 4.538576e+12 
8.801961e+02 4.638157e+04 8.176808e-10 4.434701e+13 9.204772e+12 
8.922517e+02 4.693711e+04 6.303904e-10 3.473620e+13 7.109419e+12 
9.200313e+02 4.592487e+04 5.485756e-10 3.045248e+13 6.181287e+12 
9.688202e+02 4.582174e+04 4.274583e-10 2.383602e+13 4.809422e+12 
1.029396e+03 4.597589e+04 4.370261e-10 2.370106e+13 4.924245e+12 
1.092261e+03 4.455547e+04 4.371494e-10 2.347644e+13 4.930298e+12 
1.158981e+03 4.494443e+04 4.382218e-10 2.382882e+13 4.933612e+12 
1.229776e+03 4.584248e+04 4.409642e-10 2.435370e+13 4.966020e+12 
1.304896e+03 4.823614e+04 4.492661e-10 2.523903e+13 5.062595e+12 
1.384604e+03 4.957533e+04 4.627306e-10 2.630650e+13 5.210076e+12 
1.469181e+03 5.215646e+04 4.655047e-10 2.705618e+13 5.229176e+12 
1.558925e+03 5.511654e+04 4.559010e-10 2.773223e+13 5.117756e+12 
1.654150e+03 5.776960e+04 4.517997e-10 2.870163e+13 5.061692e+12 
1.755192e+03 6.080131e+04 4.513979e-10 2.962459e+13 5.054417e+12 
1.862406e+03 6.418684e+04 4.475162e-10 2.999779e+13 5.001793e+12 
1.976169e+03 6.793302e+04 4.434613e-10 3.061693e+13 4.948707e+12 
2.096881e+03 7.199737e+04 4.329514e-10 3.122769e+13 4.821412e+12 
2.224967e+03 7.610439e+04 4.091821e-10 3.080112e+13 4.550173e+12 
2.360877e+03 8.068186e+04 3.849742e-10 2.983404e+13 4.274726e+12 
2.505088e+03 8.525757e+04 3.678918e-10 2.933412e+13 4.077891e+12 
2.658109e+03 8.924559e+04 3.551418e-10 2.915735e+13 3.933851e+12 
2.820477e+03 9.214779e+04 3.377032e-10 2.832620e+13 3.740615e+12 
2.992763e+03 9.348309e+04 3.080025e-10 2.607218e+13 3.422586e+12 
3.175573e+03 9.309006e+04 2.710467e-10 2.296775e+13 3.043692e+12 
3.369550e+03 9.072463e+04 2.337022e-10 1.966873e+13 2.675163e+12 
3.575375e+03 8.653911e+04 1.936787e-10 1.605743e+13 2.302292e+12 
3.793773e+03 8.087408e+04 1.506388e-10 1.225407e+13 1.899432e+12 
4.025512e+03 7.610553e+04 1.275573e-10 1.028250e+13 1.718351e+12 
4.271406e+03 7.379864e+04 1.247697e-10 1.003978e+13 1.748818e+12 
4.532320e+03 7.339724e+04 1.224415e-10 9.812419e+12 1.701719e+12 
4.809172e+03 7.382847e+04 1.114091e-10 8.839211e+12 1.476206e+12 
5.102936e+03 7.433501e+04 1.009835e-10 7.911743e+12 1.261322e+12 
5.414644e+03 7.467331e+04 9.560134e-11 7.411429e+12 1.139155e+12 
5.745391e+03 7.432955e+04 8.952777e-11 6.880351e+12 1.037097e+12 
6.096342e+03 7.338572e+04 8.242155e-11 6.286115e+12 9.429412e+11 
6.468731e+03 7.205143e+04 7.710920e-11 5.841839e+12 8.823691e+11 
6.863867e+03 7.031399e+04 7.126202e-11 5.355497e+12 8.218652e+11 
7.283139e+03 6.765132e+04 6.232975e-11 4.612590e+12 7.324192e+11 
7.728022e+03 6.461686e+04 5.446690e-11 3.943762e+12 6.578069e+11 
8.200081e+03 6.157633e+04 4.909474e-11 3.505378e+12 6.186016e+11 
8.700974e+03 5.779998e+04 4.305058e-11 3.074574e+12 5.734300e+11 
9.232464e+03 5.313827e+04 3.650639e-11 2.609311e+12 5.204500e+11 
9.796417e+03 4.777880e+04 3.104639e-11 2.230066e+12 4.778028e+11 
1.039482e+04 4.175265e+04 2.543246e-11 1.893754e+12 4.234781e+11 
1.102978e+04 3.492612e+04 1.946306e-11 1.430928e+12 3.466230e+11 
1.170352e+04 2.829555e+04 1.391204e-11 1.009981e+12 2.599375e+11 
1.241868e+04 2.267270e+04 1.010372e-11 6.348131e+11 1.946608e+11 
1.316817e+04 1.820726e+04 7.061696e-12 3.922887e+11 1.392329e+11 
1.388905e+04 1.485337e+04 4.965955e-12 2.105567e+11 1.006911e+11 
1.450043e+04 1.245033e+04 3.967049e-12 1.542880e+11 8.362763e+10 
1.501511e+04 1.067234e+04 3.734561e-12 1.350560e+11 8.443877e+10 
1.546584e+04 9.107738e+03 4.160670e-12 1.377901e+11 1.033862e+11 
1.582815e+04 7.795409e+03 5.643828e-12 1.518956e+11 1.528473e+11 
1.609245e+04 6.754112e+03 6.233144e-12 1.121765e+11 1.787592e+11 
1.628237e+04 6.000208e+03 6.312229e-12 8.174281e+10 1.866837e+11 
1.642596e+04 5.504531e+03 5.679931e-12 5.488551e+10 1.714967e+11 
1.654240e+04 5.257140e+03 4.915898e-12 4.238319e+10 1.498114e+11 
1.664385e+04 5.259388e+03 4.396785e-12 3.471895e+10 1.348677e+11 
1.674015e+04 5.127353e+03 3.995750e-12 2.998395e+10 1.234610e+11 
1.683704e+04 4.829718e+03 3.744873e-12 2.713595e+10 1.164806e+11 
1.693972e+04 4.720423e+03 3.545940e-12 2.528140e+10 1.111403e+11 
1.705788e+04 4.575394e+03 3.930230e-12 2.378514e+10 1.240210e+11 
1.723487e+04 4.457604e+03 3.808076e-12 1.558617e+10 1.211642e+11 
1.759558e+04 3.888473e+03 2.028783e-12 4.415175e+09 6.513674e+10 
1.818065e+04 3.531635e+03 1.365232e-12 2.872127e+09 4.412506e+10 
1.888408e+04 3.325913e+03 9.924929e-13 3.148163e+09 3.215552e+10 
1.963744e+04 3.348368e+03 6.930320e-13 2.858754e+07 2.245828e+10 
2.043076e+04 2.302255e+03 4.807127e-13 5.260969e+07 1.563179e+10 
2.124524e+04 2.680327e+03 3.596673e-13 1.757360e+09 1.170466e+10 
2.205069e+04 3.482625e+03 2.612851e-13 3.630135e+04 8.521614e+09 
2.284519e+04 3.151037e+03 1.861923e-13 4.754271e+08 6.099293e+09 
2.364658e+04 2.270742e+03 1.355823e-13 1.502520e+04 4.476636e+09 
2.445835e+04 2.457941e+03 1.040369e-13 1.158022e+08 3.473670e+09 
2.527708e+04 1.605301e+03 8.250909e-14 1.362884e+06 2.808489e+09 
2.612065e+04 1.921142e+03 6.569288e-14 1.433861e+03 2.297783e+09 
2.705367e+04 2.827249e+03 5.113275e-14 8.942718e+05 1.863623e+09 
2.822140e+04 1.162353e+03 3.424865e-14 9.541502e+02 1.330858e+09 
2.975253e+04 2.039828e+03 1.822657e-14 7.928032e+03 7.541922e+08 
3.155178e+04 1.433294e+03 8.956606e-15 8.787144e+03 3.850549e+08 
3.347929e+04 1.454770e+03 4.245112e-15 4.110615e+03 1.844222e+08 
3.543911e+04 1.459125e+03 2.252231e-15 1.639434e+03 9.820274e+07 
3.730307e+04 1.000000e+02 1.340949e-15 1.464096e-07 5.849970e+07 
3.899822e+04 1.000000e+02 9.457264e-16 1.213862e-07 4.129324e+07 
4.050110e+04 1.000000e+02 6.825531e-16 1.025758e-07 2.975557e+07 
4.184592e+04 1.000000e+02 4.589687e-16 8.398279e-08 2.001923e+07 
4.308864e+04 1.000000e+02 3.025376e-16 6.816963e-08 1.320764e+07 
4.428714e+04 1.000000e+02 1.971965e-16 5.503571e-08 8.602740e+06 
4.548226e+04 1.000000e+02 1.322366e-16 4.506812e-08 5.768870e+06 
4.668639e+04 1.000000e+02 8.947864e-17 3.707264e-08 3.906624e+06 
4.790207e+04 1.000000e+02 6.119857e-17 3.065948e-08 2.671870e+06 
4.913111e+04 1.000000e+02 4.198206e-17 2.539372e-08 1.827908e+06 
5.037838e+04 1.000000e+02 2.889630e-17 2.106760e-08 1.261088e+06 
5.164686e+04 1.000000e+02 1.992525e-17 1.749432e-08 8.693860e+05 
5.293843e+04 1.000000e+02 1.376094e-17 1.453842e-08 6.001670e+05 
5.425290e+04 1.000000e+02 9.529148e-18 1.209825e-08 4.159650e+05 
5.558886e+04 1.000000e+02 6.603937e-18 1.007152e-08 2.884435e+05 
5.694142e+04 1.000000e+02 4.606751e-18 8.411863e-09 2.015034e+05 
5.830411e+04 1.000000e+02 3.219606e-18 7.032262e-09 1.404771e+05 
5.966620e+04 1.000000e+02 2.280162e-18 5.918036e-09 9.948530e+04 
6.101550e+04 1.000000e+02 1.624715e-18 4.995546e-09 7.084640e+04 
6.233719e+04 1.000000e+02 1.178762e-18 4.255072e-09 5.151388e+04 
6.361286e+04 1.000000e+02 8.686314e-19 3.652682e-09 3.785284e+04 
6.482466e+04 1.000000e+02 6.525245e-19 3.165870e-09 2.853985e+04 
6.595016e+04 1.000000e+02 5.051292e-19 2.785452e-09 2.199278e+04 
6.697182e+04 1.000000e+02 3.980787e-19 2.472737e-09 1.736789e+04 
6.787199e+04 1.000000e+02 3.278182e-19 2.243946e-09 1.431102e+04 
6.864160e+04 1.000000e+02 2.733609e-19 2.049087e-09 1.193203e+04 
6.927720e+04 1.000000e+02 1.875379e-19 1.697226e-09 8.177710e+03 
6.967325e+04 1.000000e+02 1.907191e-19 1.711565e-09 8.319390e+03 
6.984350e+04 1.000000e+02 1.858286e-19 1.689426e-09 8.106810e+03 
6.992880e+04 1.000000e+02 1.833897e-19 1.678450e-09 8.005580e+03 
6.997149e+04 1.000000e+02 1.792049e-19 1.659000e-09 7.823350e+03 
6.999249e+04 1.000000e+02 1.274664e-19 1.399291e-09 5.556410e+03 
6.999962e+04 1.000000e+02 1.215753e-19 1.363645e-09 5.283053e+03 
#
#TIME: 2.190675e+00 
#NVEL: 115
#vel_mid[km/s] temp[K] rho[gcc] ne[/cm^3] natom[/cm^3]
4.386064e+02 4.460444e+04 3.616125e-10 1.983449e+13 4.079964e+12 
8.801961e+02 4.446178e+04 7.331830e-10 3.966613e+13 8.251904e+12 
8.922517e+02 4.505516e+04 5.652469e-10 3.106877e+13 6.369335e+12 
9.200313e+02 4.416308e+04 4.918867e-10 2.694339e+13 5.543346e+12 
9.688202e+02 4.485146e+04 3.832855e-10 2.112874e+13 4.319571e+12 
1.029396e+03 4.480804e+04 3.918645e-10 2.152230e+13 4.414587e+12 
1.092261e+03 4.454650e+04 3.919751e-10 2.132879e+13 4.416773e+12 
1.158981e+03 4.482862e+04 3.929367e-10 2.152445e+13 4.430716e+12 
1.229776e+03 4.571773e+04 3.953957e-10 2.199422e+13 4.452638e+12 
1.304896e+03 4.796322e+04 4.028397e-10 2.269188e+13 4.538661e+12 
1.384604e+03 4.951285e+04 4.149128e-10 2.365928e+13 4.665070e+12 
1.469181e+03 5.151764e+04 4.174002e-10 2.433071e+13 4.694463e+12 
1.558925e+03 5.439227e+04 4.087890e-10 2.500060e+13 4.590812e+12 
1.654150e+03 5.698072e+04 4.051115e-10 2.573456e+13 4.546763e+12 
1.755192e+03 5.987753e+04 4.047512e-10 2.660067e+13 4.530064e+12 
1.862406e+03 6.337600e+04 4.012707e-10 2.699509e+13 4.487145e+12 
1.976169e+03 6.734653e+04 3.976348e-10 2.766893e+13 4.436031e+12 
2.096881e+03 7.106906e+04 3.882109e-10 2.824799e+13 4.326937e+12 
2.224967e+03 7.498548e+04 3.668979e-10 2.773261e+13 4.080089e+12 
2.360877e+03 7.968268e+04 3.451916e-10 2.688772e+13 3.833088e+12 
2.505088e+03 8.426296e+04 3.298744e-10 2.654440e+13 3.653831e+12 
2.658109e+03 8.788614e+04 3.184420e-10 2.643566e+13 3.525089e+12 
2.820477e+03 9.084835e+04 3.028055e-10 2.564704e+13 3.359221e+12 
2.992763e+03 9.202205e+04 2.761740e-10 2.356508e+13 3.074156e+12 
3.175573e+03 9.160031e+04 2.430372e-10 2.075123e+13 2.725477e+12 
3.369550e+03 8.929110e+04 2.095518e-10 1.779143e+13 2.398745e+12 
3.575375e+03 8.508602e+04 1.736643e-10 1.450355e+13 2.064531e+12 
3.793773e+03 7.978680e+04 1.350720e-10 1.104649e+13 1.703011e+12 
4.025512e+03 7.521347e+04 1.143758e-10 9.252476e+12 1.540564e+12 
4.271406e+03 7.283905e+04 1.118762e-10 9.020379e+12 1.568123e+12 
4.532320e+03 7.227830e+04 1.097886e-10 8.804647e+12 1.526174e+12 
4.809172e+03 7.253504e+04 9.989625e-11 7.926974e+12 1.323350e+12 
5.102936e+03 7.304995e+04 9.054802e-11 7.097753e+12 1.131837e+12 
5.414644e+03 7.334868e+04 8.572206e-11 6.649834e+12 1.021782e+12 
5.745391e+03 7.298407e+04 8.027612e-11 6.169087e+12 9.302864e+11 
6.096342e+03 7.202355e+04 7.390424e-11 5.634943e+12 8.464791e+11 
6.468731e+03 7.077236e+04 6.914086e-11 5.232875e+12 7.907305e+11 
6.863867e+03 6.893699e+04 6.389792e-11 4.791659e+12 7.375307e+11 
7.283139e+03 6.636533e+04 5.588869e-11 4.120916e+12 6.572218e+11 
7.728022e+03 6.339897e+04 4.883838e-11 3.520259e+12 5.898935e+11 
8.200081e+03 6.032475e+04 4.402137e-11 3.129402e+12 5.542930e+11 
8.700974e+03 5.666553e+04 3.860181e-11 2.749640e+12 5.138673e+11 
9.232464e+03 5.211424e+04 3.273388e-11 2.332099e+12 4.667005e+11 
9.796417e+03 4.691059e+04 2.783811e-11 1.997860e+12 4.291328e+11 
1.039482e+04 4.102747e+04 2.280431e-11 1.698238e+12 3.801480e+11 
1.102978e+04 3.442660e+04 1.745178e-11 1.285357e+12 3.101859e+11 
1.170352e+04 2.806795e+04 1.247439e-11 9.089475e+11 2.330977e+11 
