#NTIMES:     39
#TIMES[d]:     2.000    2.020    2.050    2.100    2.200    2.400    2.640    2.900    3.190    3.510    3.860    4.250    4.670    5.140    5.650    6.210    6.830    7.510    8.260    9.090   10.000   11.000   12.100   13.310   14.640   16.100   17.710   19.480   21.430   23.570   25.930   28.520   31.370   34.510   38.000   41.000   45.100   49.610   54.570
#
#TIME:     2.000
#NVEL: 100
#vel_mid[km/s]  Rossmean[cm^2/g]  Fluxmean[cm^2/g] Planckmean[cm^2/g] Jcmf[erg/s/cm^2]  Hcmf[erg/s/cm^2]
    1.025000E+03      4.6705E-02        5.7745E-02        4.1040E-02        3.0541E+15        2.7500E+13
    1.037120E+03      4.6664E-02        4.9503E-02        4.1007E-02        3.0539E+15        7.7518E+10
    1.061360E+03      4.6630E-02        4.8290E-02        4.0969E-02        3.0437E+15        5.5206E+11
    1.109839E+03      4.6643E-02        4.7083E-02        4.0945E-02        3.0048E+15        8.7049E+11
    1.213017E+03      4.6763E-02        4.6788E-02        4.0950E-02        2.9032E+15        9.9095E+11
    1.325723E+03      4.6912E-02        4.6868E-02        4.0966E-02        2.7922E+15        9.9737E+11
    1.448902E+03      4.7082E-02        4.7022E-02        4.0985E-02        2.6747E+15        9.9827E+11
    1.583526E+03      4.7271E-02        4.7206E-02        4.1008E-02        2.5515E+15        9.9730E+11
    1.730658E+03      4.7483E-02        4.7411E-02        4.1034E-02        2.4229E+15        9.9166E+11
    1.891461E+03      4.7715E-02        4.7635E-02        4.1062E-02        2.2902E+15        9.8571E+11
    2.067205E+03      4.7975E-02        4.7889E-02        4.1093E-02        2.1532E+15        9.7954E+11
    2.259278E+03      4.8262E-02        4.8166E-02        4.1127E-02        2.0130E+15        9.7468E+11
    2.469197E+03      4.8586E-02        4.8486E-02        4.1167E-02        1.8694E+15        9.7056E+11
    2.698621E+03      4.8947E-02        4.8832E-02        4.1211E-02        1.7241E+15        9.6201E+11
    2.949361E+03      4.9349E-02        4.9223E-02        4.1260E-02        1.5781E+15        9.5418E+11
    3.223399E+03      4.9800E-02        4.9666E-02        4.1316E-02        1.4322E+15        9.4610E+11
    3.522899E+03      5.0305E-02        5.0159E-02        4.1378E-02        1.2878E+15        9.3639E+11
    3.850227E+03      5.0871E-02        5.0717E-02        4.1448E-02        1.1462E+15        9.2552E+11
    4.207968E+03      5.1503E-02        5.1353E-02        4.1527E-02        1.0088E+15        9.1292E+11
    4.598949E+03      5.2206E-02        5.2076E-02        4.1616E-02        8.7712E+14        8.9816E+11
    5.026257E+03      5.2977E-02        5.2917E-02        4.1715E-02        7.5252E+14        8.7980E+11
    5.493268E+03      5.3808E-02        5.3835E-02        4.1825E-02        6.3649E+14        8.5931E+11
    6.003672E+03      5.4670E-02        5.5071E-02        4.1943E-02        5.3023E+14        8.2849E+11
    6.563976E+03      5.5528E-02        5.8308E-02        4.2060E-02        4.3544E+14        7.6533E+11
    7.150150E+03      5.8892E-02        6.2678E-02        4.3085E-02        3.5195E+14        8.2514E+11
    7.624563E+03      6.3419E-02        6.5426E-02        4.5060E-02        2.8132E+14        9.6003E+11
    8.015598E+03      6.8407E-02        6.9872E-02        4.7488E-02        2.2385E+14        9.9443E+11
    8.365060E+03      7.4150E-02        7.5618E-02        5.0350E-02        1.7549E+14        9.4190E+11
    8.678533E+03      8.0987E-02        8.2512E-02        5.3538E-02        1.3646E+14        8.5687E+11
    8.970829E+03      9.0250E-02        9.1900E-02        5.7022E-02        1.0499E+14        7.1840E+11
    9.225513E+03      1.0292E-01        1.0514E-01        6.0221E-02        8.1829E+13        5.7511E+11
    9.474694E+03      1.2210E-01        1.2576E-01        6.2792E-02        6.2954E+13        4.3224E+11
    9.694307E+03      1.4437E-01        1.5140E-01        6.4165E-02        4.9213E+13        3.2569E+11
    9.904307E+03      1.6566E-01        1.7407E-01        6.6359E-02        3.8340E+13        2.5169E+11
    1.009658E+04      1.7823E-01        1.8559E-01        7.0697E-02        3.0064E+13        2.0790E+11
    1.028085E+04      1.8135E-01        1.8903E-01        7.6068E-02        2.3428E+13        1.8101E+11
    1.045267E+04      1.7828E-01        1.8643E-01        8.0263E-02        1.8273E+13        1.6183E+11
    1.061724E+04      1.7457E-01        1.8224E-01        8.4960E-02        1.4186E+13        1.4382E+11
    1.077223E+04      1.7549E-01        1.8430E-01        9.1666E-02        1.0990E+13        1.2526E+11
    1.091419E+04      1.7578E-01        1.8851E-01        9.5925E-02        8.5409E+12        1.1000E+11
    1.104427E+04      1.6557E-01        1.7811E-01        9.3448E-02        6.6615E+12        1.0096E+11
    1.116962E+04      1.5122E-01        1.6489E-01        8.8622E-02        5.1527E+12        9.4318E+10
    1.128592E+04      1.4165E-01        1.5589E-01        8.9406E-02        3.9878E+12        8.6306E+10
    1.138719E+04      1.3809E-01        1.5254E-01        9.6925E-02        3.1342E+12        7.7513E+10
    1.148357E+04      1.3788E-01        1.5201E-01        1.0673E-01        2.4427E+12        6.8320E+10
    1.157588E+04      1.3782E-01        1.5356E-01        1.0747E-01        1.8804E+12        5.9762E+10
    1.165789E+04      1.3147E-01        1.5121E-01        9.3177E-02        1.4575E+12        5.3803E+10
    1.172968E+04      1.1596E-01        1.3869E-01        7.6969E-02        1.1450E+12        5.0559E+10
    1.179602E+04      9.9646E-02        1.2099E-01        6.7480E-02        9.0316E+11        4.8380E+10
    1.185624E+04      8.9903E-02        1.1018E-01        6.7621E-02        7.1898E+11        4.5924E+10
    1.191139E+04      8.4470E-02        1.0385E-01        7.2713E-02        5.7482E+11        4.2914E+10
    1.196310E+04      8.0313E-02        1.0015E-01        7.8438E-02        4.5732E+11        3.9643E+10
    1.200903E+04      7.4416E-02        9.6842E-02        7.9390E-02        3.6587E+11        3.6607E+10
    1.204957E+04      6.5197E-02        8.9231E-02        7.3093E-02        2.9619E+11        3.3907E+10
    1.208724E+04      5.6364E-02        8.0958E-02        6.8064E-02        2.4153E+11        3.1248E+10
    1.211780E+04      5.0417E-02        7.5722E-02        6.6781E-02        2.0398E+11        2.8768E+10
    1.214029E+04      4.5222E-02        7.0059E-02        6.2235E-02        1.8070E+11        2.6753E+10
    1.215784E+04      3.9830E-02        6.3449E-02        5.3563E-02        1.6546E+11        2.5186E+10
    1.217298E+04      3.4453E-02        5.6268E-02        4.3173E-02        1.5445E+11        2.3926E+10
    1.218654E+04      2.9857E-02        4.9731E-02        3.3985E-02        1.4621E+11        2.2899E+10
    1.220016E+04      2.6036E-02        4.3260E-02        2.6886E-02        1.3931E+11        2.1963E+10
    1.221368E+04      2.3291E-02        3.7686E-02        2.2685E-02        1.3367E+11        2.1120E+10
    1.222859E+04      2.1200E-02        3.2570E-02        2.0543E-02        1.2853E+11        2.0257E+10
    1.224457E+04      1.9756E-02        2.8094E-02        1.9858E-02        1.2407E+11        1.9358E+10
    1.225965E+04      1.8759E-02        2.4276E-02        1.9371E-02        1.2072E+11        1.8513E+10
    1.227256E+04      1.7959E-02        2.1459E-02        1.8458E-02        1.1849E+11        1.7812E+10
    1.228514E+04      1.6908E-02        1.8767E-02        1.6773E-02        1.1678E+11        1.7187E+10
    1.229683E+04      1.5779E-02        1.6393E-02        1.5080E-02        1.1558E+11        1.6699E+10
    1.232733E+04      1.4607E-02        1.4377E-02        1.3810E-02        1.1301E+11        1.5721E+10
    1.289197E+04      1.4121E-02        1.4893E-02        1.3609E-02        7.7619E+10        8.9689E+09
    1.402569E+04      1.3989E-02        1.4853E-02        1.3514E-02        4.2107E+10        5.2281E+09
    1.518573E+04      1.3921E-02        1.5033E-02        1.3471E-02        2.6341E+10        3.7782E+09
    1.632859E+04      1.3874E-02        1.5292E-02        1.3444E-02        1.7901E+10        3.0436E+09
    1.745157E+04      1.3837E-02        1.5658E-02        1.3427E-02        1.3033E+10        2.6031E+09
    1.855827E+04      1.3804E-02        1.6162E-02        1.3413E-02        9.9824E+09        2.2972E+09
    1.963325E+04      1.3771E-02        1.6810E-02        1.3402E-02        8.0091E+09        2.0672E+09
    2.068109E+04      1.3734E-02        1.7639E-02        1.3393E-02        6.6530E+09        1.8887E+09
    2.170537E+04      1.3696E-02        1.8657E-02        1.3386E-02        5.6751E+09        1.7447E+09
    2.269952E+04      1.3659E-02        1.9778E-02        1.3379E-02        4.9444E+09        1.6265E+09
    2.366536E+04      1.3627E-02        2.1013E-02        1.3375E-02        4.3815E+09        1.5274E+09
    2.460914E+04      1.3599E-02        2.2462E-02        1.3371E-02        3.9317E+09        1.4424E+09
    2.553354E+04      1.3575E-02        2.4264E-02        1.3369E-02        3.5632E+09        1.3686E+09
    2.644080E+04      1.3555E-02        2.6800E-02        1.3367E-02        3.2530E+09        1.3040E+09
    2.733350E+04      1.3537E-02        3.0492E-02        1.3365E-02        2.9851E+09        1.2468E+09
    2.821284E+04      1.3520E-02        3.5889E-02        1.3364E-02        2.7482E+09        1.1953E+09
    2.908138E+04      1.3503E-02        4.3294E-02        1.3361E-02        2.5345E+09        1.1477E+09
    2.994295E+04      1.3486E-02        5.2640E-02        1.3358E-02        2.3379E+09        1.1022E+09
    3.079959E+04      1.3468E-02        6.3330E-02        1.3354E-02        2.1580E+09        1.0567E+09
    3.165298E+04      1.3452E-02        7.4366E-02        1.3351E-02        1.9934E+09        1.0104E+09
    3.250461E+04      1.3438E-02        8.3559E-02        1.3348E-02        1.8472E+09        9.6313E+08
    3.335585E+04      1.3426E-02        9.1581E-02        1.3347E-02        1.7161E+09        9.1504E+08
    3.420806E+04      1.3417E-02        1.0840E-01        1.3346E-02        1.6013E+09        8.6794E+08
    3.506257E+04      1.3409E-02        1.3155E-01        1.3345E-02        1.4959E+09        8.2235E+08
    3.592077E+04      1.3405E-02        1.5339E-01        1.3348E-02        1.4047E+09        7.7865E+08
    3.678416E+04      1.3402E-02        1.7804E-01        1.3353E-02        1.3215E+09        7.3667E+08
    3.765440E+04      1.3400E-02        2.0621E-01        1.3360E-02        1.2524E+09        6.9659E+08
    3.853330E+04      1.3400E-02        2.0480E-01        1.3367E-02        1.1841E+09        6.5867E+08
    3.942287E+04      1.3407E-02        1.9559E-01        1.3364E-02        1.1270E+09        6.2260E+08
    4.030996E+04      1.3411E-02       -1.0799E-01        1.3363E-02        1.0584E+09        5.9308E+08
    4.032500E+04      1.3310E-02        3.7187E+00        1.3212E-02        1.0524E+09        8.2344E+08
#TIME:     2.020
#NVEL: 111
#vel_mid[km/s]  Rossmean[cm^2/g]  Fluxmean[cm^2/g] Planckmean[cm^2/g] Jcmf[erg/s/cm^2]  Hcmf[erg/s/cm^2]
    1.025000E+03      4.6810E-02        4.6810E-03        4.0999E-02        2.9554E+15        7.5709E-02
    1.037120E+03      4.6774E-02        4.6945E-02        4.0976E-02        2.9558E+15        3.5359E+10
    1.061360E+03      4.6725E-02        4.6903E-02        4.0942E-02        2.9511E+15        3.0274E+11
    1.109839E+03      4.6695E-02        4.6831E-02        4.0905E-02        2.9255E+15        6.5933E+11
    1.213017E+03      4.6776E-02        4.6790E-02        4.0894E-02        2.8365E+15        9.3889E+11
    1.325723E+03      4.6917E-02        4.6886E-02        4.0905E-02        2.7303E+15        9.8565E+11
    1.448902E+03      4.7084E-02        4.7039E-02        4.0923E-02        2.6160E+15        9.9291E+11
    1.583526E+03      4.7274E-02        4.7221E-02        4.0945E-02        2.4958E+15        9.9272E+11
    1.730658E+03      4.7486E-02        4.7427E-02        4.0970E-02        2.3703E+15        9.8799E+11
    1.891461E+03      4.7720E-02        4.7653E-02        4.0996E-02        2.2406E+15        9.8252E+11
    2.067205E+03      4.7981E-02        4.7907E-02        4.1026E-02        2.1067E+15        9.7673E+11
    2.259278E+03      4.8271E-02        4.8185E-02        4.1059E-02        1.9696E+15        9.7207E+11
    2.469197E+03      4.8597E-02        4.8503E-02        4.1098E-02        1.8292E+15        9.6769E+11
    2.698621E+03      4.8962E-02        4.8852E-02        4.1140E-02        1.6871E+15        9.5968E+11
    2.949361E+03      4.9369E-02        4.9244E-02        4.1188E-02        1.5443E+15        9.5196E+11
    3.223399E+03      4.9826E-02        4.9688E-02        4.1242E-02        1.4016E+15        9.4389E+11
    3.522899E+03      5.0340E-02        5.0184E-02        4.1303E-02        1.2604E+15        9.3430E+11
    3.850227E+03      5.0916E-02        5.0746E-02        4.1373E-02        1.1219E+15        9.2345E+11
    4.207968E+03      5.1564E-02        5.1389E-02        4.1453E-02        9.8749E+14        9.1084E+11
    4.598949E+03      5.2286E-02        5.2125E-02        4.1543E-02        8.5863E+14        8.9567E+11
    5.026257E+03      5.3086E-02        5.2965E-02        4.1647E-02        7.3675E+14        8.7899E+11
    5.322738E+03      5.3641E-02        5.3543E-02        4.1723E-02        6.6246E+14        8.6720E+11
    5.636785E+03      5.4217E-02        5.4196E-02        4.1803E-02        5.9192E+14        8.5146E+11
    5.969249E+03      5.4811E-02        5.5118E-02        4.1891E-02        5.2573E+14        8.2327E+11
    6.324633E+03      5.5406E-02        5.6987E-02        4.1980E-02        4.6444E+14        7.8739E+11
    6.696793E+03      5.6896E-02        6.0828E-02        4.2319E-02        4.0680E+14        7.5167E+11
    7.079796E+03      5.9002E-02        6.2789E-02        4.3014E-02        3.5329E+14        8.0793E+11
    7.407135E+03      6.1958E-02        6.4029E-02        4.4263E-02        3.0583E+14        9.1019E+11
    7.692817E+03      6.4986E-02        6.6317E-02        4.5669E-02        2.6449E+14        9.6150E+11
    7.943790E+03      6.8321E-02        6.9551E-02        4.7292E-02        2.2857E+14        9.7675E+11
    8.178255E+03      7.1954E-02        7.3216E-02        4.9078E-02        1.9626E+14        9.6048E+11
    8.396906E+03      7.5880E-02        7.7346E-02        5.0967E-02        1.6775E+14        9.1636E+11
    8.600030E+03      8.0291E-02        8.2032E-02        5.2966E-02        1.4309E+14        8.5842E+11
    8.794946E+03      8.5517E-02        8.7562E-02        5.5068E-02        1.2147E+14        7.7942E+11
    8.979615E+03      9.1963E-02        9.4516E-02        5.7214E-02        1.0294E+14        6.9230E+11
    9.145090E+03      9.9678E-02        1.0288E-01        5.9199E-02        8.8019E+13        6.0542E+11
    9.307344E+03      1.0984E-01        1.1393E-01        6.1054E-02        7.4899E+13        5.1674E+11
    9.467105E+03      1.2305E-01        1.2842E-01        6.2565E-02        6.3365E+13        4.3149E+11
    9.611352E+03      1.3765E-01        1.4470E-01        6.3498E-02        5.4064E+13        3.6118E+11
    9.749622E+03      1.5303E-01        1.6181E-01        6.4308E-02        4.6088E+13        3.0337E+11
    9.884725E+03      1.6730E-01        1.7705E-01        6.5745E-02        3.9145E+13        2.5808E+11
    1.001128E+04      1.7757E-01        1.8761E-01        6.8141E-02        3.3360E+13        2.2565E+11
    1.013294E+04      1.8307E-01        1.9321E-01        7.1357E-02        2.8426E+13        2.0213E+11
    1.025192E+04      1.8422E-01        1.9433E-01        7.4843E-02        2.4160E+13        1.8450E+11
    1.036523E+04      1.8232E-01        1.9249E-01        7.7801E-02        2.0577E+13        1.7075E+11
    1.047433E+04      1.7889E-01        1.8879E-01        8.0194E-02        1.7542E+13        1.5878E+11
    1.058087E+04      1.7578E-01        1.8529E-01        8.2946E-02        1.4939E+13        1.4736E+11
    1.068358E+04      1.7463E-01        1.8423E-01        8.6700E-02        1.2723E+13        1.3612E+11
    1.078178E+04      1.7560E-01        1.8632E-01        9.0923E-02        1.0829E+13        1.2527E+11
    1.087424E+04      1.7659E-01        1.8974E-01        9.4196E-02        9.2138E+12        1.1573E+11
    1.096142E+04      1.7376E-01        1.8871E-01        9.4984E-02        7.8347E+12        1.0820E+11
    1.104427E+04      1.6599E-01        1.8046E-01        9.2829E-02        6.6663E+12        1.0177E+11
    1.116962E+04      1.5147E-01        1.6520E-01        8.7983E-02        5.1923E+12        9.2703E+10
    1.128592E+04      1.4140E-01        1.5532E-01        8.7709E-02        4.0774E+12        8.4559E+10
    1.138719E+04      1.3693E-01        1.5145E-01        9.3280E-02        3.2621E+12        7.6617E+10
    1.148357E+04      1.3595E-01        1.5084E-01        1.0218E-01        2.5946E+12        6.8609E+10
    1.157588E+04      1.3640E-01        1.5368E-01        1.0743E-01        2.0382E+12        6.1027E+10
    1.165789E+04      1.3398E-01        1.5705E-01        9.9490E-02        1.6030E+12        5.4863E+10
    1.172968E+04      1.2344E-01        1.4979E-01        8.4016E-02        1.2721E+12        5.0174E+10
    1.179602E+04      1.0745E-01        1.3097E-01        7.1339E-02        1.0218E+12        4.6353E+10
    1.185624E+04      9.5319E-02        1.1501E-01        6.6252E-02        8.4182E+11        4.3066E+10
    1.191139E+04      8.8030E-02        1.0562E-01        6.6954E-02        7.0696E+11        4.0047E+10
    1.196310E+04      8.3348E-02        1.0003E-01        7.0474E-02        5.9949E+11        3.7162E+10
    1.200903E+04      8.0104E-02        9.6617E-02        7.4827E-02        5.1614E+11        3.4531E+10
    1.204957E+04      7.7451E-02        9.3953E-02        7.8878E-02        4.5081E+11        3.2148E+10
    1.208724E+04      7.4654E-02        9.1153E-02        8.1877E-02        3.9673E+11        2.9927E+10
    1.211780E+04      7.1767E-02        8.8281E-02        8.2914E-02        3.5744E+11        2.8166E+10
    1.214029E+04      6.9176E-02        8.5641E-02        8.2513E-02        3.3113E+11        2.6907E+10
    1.215784E+04      6.6860E-02        8.3102E-02        8.1493E-02        3.1214E+11        2.5949E+10
    1.217298E+04      6.4667E-02        8.0378E-02        8.0219E-02        2.9688E+11        2.5143E+10
    1.218654E+04      6.2720E-02        7.8106E-02        7.8880E-02        2.8408E+11        2.4437E+10
    1.220016E+04      6.0739E-02        7.5664E-02        7.7463E-02        2.7201E+11        2.3746E+10
    1.221368E+04      5.8766E-02        7.2994E-02        7.6096E-02        2.6080E+11        2.3079E+10
    1.222859E+04      5.6662E-02        6.9941E-02        7.4742E-02        2.4934E+11        2.2364E+10
    1.224457E+04      5.4643E-02        6.7247E-02        7.3532E-02        2.3799E+11        2.1628E+10
    1.225965E+04      5.2788E-02        6.4498E-02        7.2639E-02        2.2811E+11        2.0963E+10
    1.227256E+04      5.1211E-02        6.1761E-02        7.2069E-02        2.2029E+11        2.0416E+10
    1.228514E+04      4.9901E-02        5.9826E-02        7.1659E-02        2.1319E+11        1.9903E+10
    1.229683E+04      4.8728E-02        5.7982E-02        7.1374E-02        2.0697E+11        1.9443E+10
    1.232733E+04      4.5450E-02        5.1031E-02        7.1018E-02        1.9281E+11        1.8302E+10
    1.289197E+04      2.2221E-02        2.5766E-02        3.3968E-02        8.7839E+10        8.4856E+09
    1.402569E+04      1.7039E-02        1.9225E-02        1.9475E-02        4.3002E+10        4.5715E+09
    1.518573E+04      1.6040E-02        1.8996E-02        1.7534E-02        2.5862E+10        3.3380E+09
    1.632859E+04      1.4569E-02        1.6872E-02        1.4497E-02        1.7222E+10        2.8123E+09
