#NTIMES: 257
#TIMES[d]: 2.200 2.420 2.662 2.928 3.221 3.543 3.897 4.287 4.716 5.187 5.706 6.277 6.905 7.595 8.354 9.190 10.109 11.109 12.109 13.109 14.109 15.109 16.109 17.109 18.109 19.109 20.109 21.109 22.109 23.109 24.109 25.109 26.109 27.109 28.109 29.109 30.109 31.109 32.109 33.109 34.109 35.109 36.109 37.109 38.109 39.109 40.109 41.109 42.109 43.109 44.109 45.109 46.109 47.109 48.109 49.109 50.109 51.109 52.109 53.109 54.109 55.109 56.109 57.109 58.109 59.109 60.109 61.109 62.109 63.109 64.109 65.109 66.109 67.109 68.109 69.109 70.109 71.109 72.109 73.109 74.109 75.109 76.109 77.109 78.109 79.109 80.109 81.109 82.109 83.109 84.109 85.109 86.109 87.109 88.109 89.109 90.109 91.109 92.109 93.109 94.109 95.109 96.109 97.109 98.109 99.109 100.109 101.109 102.109 103.109 104.109 105.109 106.109 107.109 108.109 109.109 110.109 111.109 112.109 113.109 114.109 115.109 116.109 117.109 118.109 119.109 120.109 121.109 122.109 123.109 124.109 125.109 126.109 127.109 128.109 129.109 130.109 131.109 132.109 133.109 134.109 135.109 136.109 137.109 138.109 139.109 140.109 141.109 142.109 143.109 144.109 145.109 146.109 147.109 148.109 149.109 150.109 151.109 152.109 153.109 154.109 155.109 156.109 157.109 158.109 159.109 160.109 161.109 162.109 163.109 164.109 165.109 166.109 167.109 168.109 169.109 170.109 171.109 172.109 173.109 174.109 175.109 176.109 177.109 178.109 179.109 180.109 181.109 182.109 183.109 184.109 185.109 186.109 187.109 188.109 189.109 190.109 191.109 192.109 193.109 194.109 195.109 196.109 197.109 198.109 199.109 200.109 201.109 202.109 203.109 204.109 205.109 206.109 207.109 208.109 209.109 210.109 211.109 212.109 213.109 214.109 215.109 216.109 217.109 218.109 219.109 220.109 221.109 222.109 223.109 224.109 225.109 226.109 227.109 228.109 229.109 230.109 231.109 232.109 233.109 234.109 235.109 236.109 237.109 238.109 239.109 240.109 241.109 242.109 243.109 244.109 245.109 246.109 247.109 248.109 249.109 250.109 
#
#TIME: 2.200000
#NVEL: 81
#vel_mid[km/s] Rossmean[cm^2/g] Fluxmean[cm^2/g] Planckmean[cm^2/g] Jcmf[erg/s/cm^2] Hcmf[erg/s/cm^2]
2.500e+07 3.389971e-01 1e-99 3.521025e-01 1e-99 1e-99
7.500e+07 3.889827e-01 1e-99 4.101393e-01 1e-99 1e-99
1.250e+08 4.549497e-01 1e-99 4.866196e-01 1e-99 1e-99
1.750e+08 5.350384e-01 1e-99 5.792572e-01 1e-99 1e-99
2.250e+08 6.305832e-01 1e-99 6.894346e-01 1e-99 1e-99
2.750e+08 7.434722e-01 1e-99 8.192542e-01 1e-99 1e-99
3.250e+08 8.759534e-01 1e-99 9.714595e-01 1e-99 1e-99
3.750e+08 1.030492e+00 1e-99 1.149502e+00 1e-99 1e-99
4.250e+08 1.209201e+00 1e-99 1.357175e+00 1e-99 1e-99
4.750e+08 1.411847e+00 1e-99 1.596642e+00 1e-99 1e-99
5.250e+08 1.634844e+00 1e-99 1.865591e+00 1e-99 1e-99
5.750e+08 1.871569e+00 1e-99 2.150937e+00 1e-99 1e-99
6.250e+08 2.111237e+00 1e-99 2.424516e+00 1e-99 1e-99
6.750e+08 2.371542e+00 1e-99 2.670840e+00 1e-99 1e-99
7.250e+08 2.512716e+00 1e-99 2.741192e+00 1e-99 1e-99
7.750e+08 2.328965e+00 1e-99 2.471065e+00 1e-99 1e-99
8.250e+08 1.810202e+00 1e-99 1.928097e+00 1e-99 1e-99
8.750e+08 1.235534e+00 1e-99 1.369065e+00 1e-99 1e-99
9.250e+08 8.279056e-01 1e-99 9.527974e-01 1e-99 1e-99
9.750e+08 4.309566e-01 1e-99 5.238882e-01 1e-99 1e-99
1.025e+09 2.297650e-01 1e-99 2.747914e-01 1e-99 1e-99
1.075e+09 1.868541e-01 1e-99 2.367386e-01 1e-99 1e-99
1.125e+09 1.249853e-01 1e-99 1.479497e-01 1e-99 1e-99
1.175e+09 7.657682e-02 1e-99 1.018706e-01 1e-99 1e-99
1.225e+09 2.459108e-02 1e-99 3.020643e-02 1e-99 1e-99
1.275e+09 1.304215e-02 1e-99 1.998095e-02 1e-99 1e-99
1.325e+09 1.311715e-02 1e-99 2.081113e-02 1e-99 1e-99
1.375e+09 1.319474e-02 1e-99 2.161628e-02 1e-99 1e-99
1.425e+09 1.327531e-02 1e-99 2.241352e-02 1e-99 1e-99
1.475e+09 1.335868e-02 1e-99 2.321319e-02 1e-99 1e-99
1.525e+09 1.344424e-02 1e-99 2.401773e-02 1e-99 1e-99
1.575e+09 1.353107e-02 1e-99 2.482563e-02 1e-99 1e-99
1.625e+09 1.361791e-02 1e-99 2.563183e-02 1e-99 1e-99
1.675e+09 1.370346e-02 1e-99 2.642702e-02 1e-99 1e-99
1.725e+09 1.378629e-02 1e-99 2.719828e-02 1e-99 1e-99
1.775e+09 1.386508e-02 1e-99 2.793907e-02 1e-99 1e-99
1.825e+09 1.393866e-02 1e-99 2.865453e-02 1e-99 1e-99
1.875e+09 1.400605e-02 1e-99 2.935762e-02 1e-99 1e-99
1.925e+09 1.406654e-02 1e-99 3.005689e-02 1e-99 1e-99
1.975e+09 1.411975e-02 1e-99 3.074852e-02 1e-99 1e-99
2.025e+09 1.416559e-02 1e-99 3.141861e-02 1e-99 1e-99
2.075e+09 1.420427e-02 1e-99 3.205472e-02 1e-99 1e-99
2.125e+09 1.423626e-02 1e-99 3.265327e-02 1e-99 1e-99
2.175e+09 1.426220e-02 1e-99 3.321929e-02 1e-99 1e-99
2.225e+09 1.428292e-02 1e-99 3.376979e-02 1e-99 1e-99
2.275e+09 1.429927e-02 1e-99 3.434251e-02 1e-99 1e-99
2.325e+09 1.431214e-02 1e-99 3.499631e-02 1e-99 1e-99
2.375e+09 1.432236e-02 1e-99 3.580235e-02 1e-99 1e-99
2.425e+09 1.433066e-02 1e-99 3.683514e-02 1e-99 1e-99
2.475e+09 1.433765e-02 1e-99 3.816903e-02 1e-99 1e-99
2.525e+09 1.434375e-02 1e-99 3.987357e-02 1e-99 1e-99
2.575e+09 1.434923e-02 1e-99 4.200123e-02 1e-99 1e-99
2.625e+09 1.435423e-02 1e-99 4.458363e-02 1e-99 1e-99
2.675e+09 1.435874e-02 1e-99 4.762001e-02 1e-99 1e-99
2.725e+09 1.436265e-02 1e-99 5.106738e-02 1e-99 1e-99
2.775e+09 1.436583e-02 1e-99 5.486220e-02 1e-99 1e-99
2.825e+09 1.436812e-02 1e-99 5.899639e-02 1e-99 1e-99
2.875e+09 1.436938e-02 1e-99 6.357572e-02 1e-99 1e-99
2.925e+09 1.436953e-02 1e-99 6.881324e-02 1e-99 1e-99
2.975e+09 1.436856e-02 1e-99 7.499274e-02 1e-99 1e-99
3.025e+09 1.436652e-02 1e-99 8.244042e-02 1e-99 1e-99
3.075e+09 1.436349e-02 1e-99 9.151814e-02 1e-99 1e-99
3.125e+09 1.435964e-02 1e-99 1.026063e-01 1e-99 1e-99
3.175e+09 1.435515e-02 1e-99 1.160982e-01 1e-99 1e-99
3.225e+09 1.435021e-02 1e-99 1.323791e-01 1e-99 1e-99
3.275e+09 1.434502e-02 1e-99 1.518451e-01 1e-99 1e-99
3.325e+09 1.433974e-02 1e-99 1.749442e-01 1e-99 1e-99
3.375e+09 1.433452e-02 1e-99 2.022633e-01 1e-99 1e-99
3.425e+09 1.432944e-02 1e-99 2.345738e-01 1e-99 1e-99
3.475e+09 1.432456e-02 1e-99 2.727895e-01 1e-99 1e-99
3.525e+09 1.431989e-02 1e-99 3.178131e-01 1e-99 1e-99
3.575e+09 1.431543e-02 1e-99 3.703878e-01 1e-99 1e-99
3.625e+09 1.431116e-02 1e-99 4.311401e-01 1e-99 1e-99
3.675e+09 1.430705e-02 1e-99 5.006848e-01 1e-99 1e-99
3.725e+09 1.430310e-02 1e-99 5.799680e-01 1e-99 1e-99
3.775e+09 1.429930e-02 1e-99 6.703925e-01 1e-99 1e-99
3.825e+09 1.429565e-02 1e-99 7.729387e-01 1e-99 1e-99
3.875e+09 1.429216e-02 1e-99 8.871306e-01 1e-99 1e-99
3.925e+09 1.428887e-02 1e-99 1.011026e+00 1e-99 1e-99
3.975e+09 1.428582e-02 1e-99 1.143544e+00 1e-99 1e-99
4.025e+09 1.428307e-02 1e-99 1.286055e+00 1e-99 1e-99
#TIME: 2.420000
#NVEL: 81
#vel_mid[km/s] Rossmean[cm^2/g] Fluxmean[cm^2/g] Planckmean[cm^2/g] Jcmf[erg/s/cm^2] Hcmf[erg/s/cm^2]
2.500e+07 3.836907e-01 1e-99 4.092444e-01 1e-99 1e-99
7.500e+07 4.577883e-01 1e-99 4.918366e-01 1e-99 1e-99
1.250e+08 5.383963e-01 1e-99 5.851330e-01 1e-99 1e-99
1.750e+08 6.367342e-01 1e-99 6.983938e-01 1e-99 1e-99
2.250e+08 7.534682e-01 1e-99 8.323711e-01 1e-99 1e-99
2.750e+08 8.893635e-01 1e-99 9.884450e-01 1e-99 1e-99
3.250e+08 1.048201e+00 1e-99 1.171115e+00 1e-99 1e-99
3.750e+08 1.231618e+00 1e-99 1.383789e+00 1e-99 1e-99
4.250e+08 1.438897e+00 1e-99 1.628422e+00 1e-99 1e-99
4.750e+08 1.664069e+00 1e-99 1.900025e+00 1e-99 1e-99
5.250e+08 1.899738e+00 1e-99 2.182315e+00 1e-99 1e-99
5.750e+08 2.132292e+00 1e-99 2.441473e+00 1e-99 1e-99
6.250e+08 2.334620e+00 1e-99 2.633995e+00 1e-99 1e-99
6.750e+08 2.463606e+00 1e-99 2.699108e+00 1e-99 1e-99
7.250e+08 2.329662e+00 1e-99 2.483845e+00 1e-99 1e-99
7.750e+08 1.883824e+00 1e-99 2.014094e+00 1e-99 1e-99
8.250e+08 1.332819e+00 1e-99 1.480409e+00 1e-99 1e-99
8.750e+08 9.167228e-01 1e-99 1.062977e+00 1e-99 1e-99
9.250e+08 5.088167e-01 1e-99 6.276758e-01 1e-99 1e-99
9.750e+08 2.658992e-01 1e-99 3.369477e-01 1e-99 1e-99
1.025e+09 2.081725e-01 1e-99 2.760268e-01 1e-99 1e-99
1.075e+09 1.784231e-01 1e-99 2.388797e-01 1e-99 1e-99
1.125e+09 1.098622e-01 1e-99 1.491096e-01 1e-99 1e-99
1.175e+09 7.115328e-02 1e-99 1.036469e-01 1e-99 1e-99
1.225e+09 3.453986e-02 1e-99 3.466799e-02 1e-99 1e-99
1.275e+09 2.360410e-02 1e-99 1.358278e-02 1e-99 1e-99
1.325e+09 2.009322e-02 1e-99 1.318972e-02 1e-99 1e-99
1.375e+09 1.699433e-02 1e-99 1.200574e-02 1e-99 1e-99
1.425e+09 1.601732e-02 1e-99 1.154167e-02 1e-99 1e-99
1.475e+09 1.593317e-02 1e-99 1.288813e-02 1e-99 1e-99
1.525e+09 1.594565e-02 1e-99 1.664225e-02 1e-99 1e-99
1.575e+09 1.566926e-02 1e-99 2.087021e-02 1e-99 1e-99
1.625e+09 1.540512e-02 1e-99 2.264226e-02 1e-99 1e-99
1.675e+09 1.535312e-02 1e-99 2.301559e-02 1e-99 1e-99
1.725e+09 1.514462e-02 1e-99 2.431642e-02 1e-99 1e-99
1.775e+09 1.474654e-02 1e-99 2.626253e-02 1e-99 1e-99
1.825e+09 1.505586e-02 1e-99 2.516246e-02 1e-99 1e-99
1.875e+09 1.426552e-02 1e-99 2.871821e-02 1e-99 1e-99
1.925e+09 1.316701e-02 1e-99 3.085103e-02 1e-99 1e-99
1.975e+09 1.422066e-02 1e-99 3.023962e-02 1e-99 1e-99
2.025e+09 1.431592e-02 1e-99 3.061148e-02 1e-99 1e-99
2.075e+09 1.427363e-02 1e-99 3.140379e-02 1e-99 1e-99
2.125e+09 1.463079e-02 1e-99 3.006792e-02 1e-99 1e-99
2.175e+09 1.453546e-02 1e-99 3.127496e-02 1e-99 1e-99
2.225e+09 1.478371e-02 1e-99 2.998367e-02 1e-99 1e-99
2.275e+09 1.477720e-02 1e-99 3.092831e-02 1e-99 1e-99
2.325e+09 1.469546e-02 1e-99 3.273976e-02 1e-99 1e-99
2.375e+09 1.439540e-02 1e-99 3.555321e-02 1e-99 1e-99
2.425e+09 1.436408e-02 1e-99 3.711290e-02 1e-99 1e-99
2.475e+09 1.431458e-02 1e-99 3.902316e-02 1e-99 1e-99
2.525e+09 1.456626e-02 1e-99 4.088676e-02 1e-99 1e-99
2.575e+09 1.459571e-02 1e-99 4.355367e-02 1e-99 1e-99
2.625e+09 1.437667e-02 1e-99 4.687636e-02 1e-99 1e-99
2.675e+09 1.454268e-02 1e-99 4.996707e-02 1e-99 1e-99
2.725e+09 1.446567e-02 1e-99 5.382866e-02 1e-99 1e-99
2.775e+09 1.436895e-02 1e-99 5.813000e-02 1e-99 1e-99
2.825e+09 1.450418e-02 1e-99 6.257880e-02 1e-99 1e-99
2.875e+09 1.404786e-02 1e-99 6.774346e-02 1e-99 1e-99
2.925e+09 1.444048e-02 1e-99 7.464020e-02 1e-99 1e-99
2.975e+09 1.440212e-02 1e-99 8.225656e-02 1e-99 1e-99
3.025e+09 1.437651e-02 1e-99 9.148944e-02 1e-99 1e-99
3.075e+09 1.389001e-02 1e-99 9.839536e-02 1e-99 1e-99
3.125e+09 1.431922e-02 1e-99 1.154139e-01 1e-99 1e-99
3.175e+09 1.377486e-02 1e-99 1.232962e-01 1e-99 1e-99
3.225e+09 1.413018e-02 1e-99 1.457376e-01 1e-99 1e-99
3.275e+09 1.438800e-02 1e-99 1.879764e-01 1e-99 1e-99
3.325e+09 1.432835e-02 1e-99 2.037453e-01 1e-99 1e-99
3.375e+09 1.435766e-02 1e-99 2.450728e-01 1e-99 1e-99
3.425e+09 1.433368e-02 1e-99 2.786797e-01 1e-99 1e-99
3.475e+09 1.423367e-02 1e-99 3.095807e-01 1e-99 1e-99
3.525e+09 1.364569e-02 1e-99 3.310285e-01 1e-99 1e-99
3.575e+09 1.395600e-02 1e-99 4.017456e-01 1e-99 1e-99
3.625e+09 1.428851e-02 1e-99 5.033382e-01 1e-99 1e-99
3.675e+09 1.408182e-02 1e-99 5.605720e-01 1e-99 1e-99
3.725e+09 1.421112e-02 1e-99 6.724315e-01 1e-99 1e-99
3.775e+09 1.427369e-02 1e-99 7.874179e-01 1e-99 1e-99
3.825e+09 1.420340e-02 1e-99 9.156048e-01 1e-99 1e-99
3.875e+09 1.342693e-02 1e-99 9.872961e-01 1e-99 1e-99
3.925e+09 1.402145e-02 1e-99 1.228417e+00 1e-99 1e-99
3.975e+09 1.238607e-02 1e-99 1.273501e+00 1e-99 1e-99
4.025e+09 1.054001e-02 1e-99 1.410690e+00 1e-99 1e-99
#TIME: 2.662000
#NVEL: 81
#vel_mid[km/s] Rossmean[cm^2/g] Fluxmean[cm^2/g] Planckmean[cm^2/g] Jcmf[erg/s/cm^2] Hcmf[erg/s/cm^2]
2.500e+07 4.609395e-01 1e-99 4.999909e-01 1e-99 1e-99
7.500e+07 5.511751e-01 1e-99 6.001384e-01 1e-99 1e-99
1.250e+08 6.497874e-01 1e-99 7.137369e-01 1e-99 1e-99
1.750e+08 7.678618e-01 1e-99 8.494735e-01 1e-99 1e-99
2.250e+08 9.075413e-01 1e-99 1.009606e+00 1e-99 1e-99
2.750e+08 1.069158e+00 1e-99 1.195684e+00 1e-99 1e-99
3.250e+08 1.256324e+00 1e-99 1.412702e+00 1e-99 1e-99
3.750e+08 1.466436e+00 1e-99 1.660914e+00 1e-99 1e-99
4.250e+08 1.693744e+00 1e-99 1.934922e+00 1e-99 1e-99
4.750e+08 1.930039e+00 1e-99 2.216166e+00 1e-99 1e-99
5.250e+08 2.160161e+00 1e-99 2.468561e+00 1e-99 1e-99
5.750e+08 2.362074e+00 1e-99 2.659264e+00 1e-99 1e-99
6.250e+08 2.488776e+00 1e-99 2.744961e+00 1e-99 1e-99
6.750e+08 2.488837e+00 1e-99 2.684145e+00 1e-99 1e-99
7.250e+08 2.214933e+00 1e-99 2.368341e+00 1e-99 1e-99
7.750e+08 1.699680e+00 1e-99 1.860747e+00 1e-99 1e-99
8.250e+08 1.205508e+00 1e-99 1.383022e+00 1e-99 1e-99
8.750e+08 8.254737e-01 1e-99 9.923869e-01 1e-99 1e-99
9.250e+08 4.122833e-01 1e-99 5.445462e-01 1e-99 1e-99
9.750e+08 2.459200e-01 1e-99 3.289521e-01 1e-99 1e-99
1.025e+09 2.099948e-01 1e-99 3.032240e-01 1e-99 1e-99
1.075e+09 1.750226e-01 1e-99 2.499806e-01 1e-99 1e-99
1.125e+09 1.091447e-01 1e-99 1.589207e-01 1e-99 1e-99
1.175e+09 8.273154e-02 1e-99 1.284240e-01 1e-99 1e-99
1.225e+09 4.129126e-02 1e-99 4.337982e-02 1e-99 1e-99
1.275e+09 2.916543e-02 1e-99 1.716482e-02 1e-99 1e-99
1.325e+09 2.624065e-02 1e-99 1.819573e-02 1e-99 1e-99
1.375e+09 2.425302e-02 1e-99 1.774619e-02 1e-99 1e-99
1.425e+09 2.249369e-02 1e-99 1.705919e-02 1e-99 1e-99
1.475e+09 1.952892e-02 1e-99 1.581928e-02 1e-99 1e-99
1.525e+09 1.699476e-02 1e-99 1.402018e-02 1e-99 1e-99
1.575e+09 1.592931e-02 1e-99 1.311857e-02 1e-99 1e-99
1.625e+09 1.559508e-02 1e-99 1.323345e-02 1e-99 1e-99
1.675e+09 1.550055e-02 1e-99 1.415565e-02 1e-99 1e-99
1.725e+09 1.546639e-02 1e-99 1.527298e-02 1e-99 1e-99
1.775e+09 1.543097e-02 1e-99 1.886304e-02 1e-99 1e-99
1.825e+09 1.524990e-02 1e-99 2.182166e-02 1e-99 1e-99
1.875e+09 1.502611e-02 1e-99 2.432841e-02 1e-99 1e-99
1.925e+09 1.471224e-02 1e-99 2.707352e-02 1e-99 1e-99
1.975e+09 1.448394e-02 1e-99 2.882997e-02 1e-99 1e-99
2.025e+09 1.426810e-02 1e-99 3.034032e-02 1e-99 1e-99
2.075e+09 1.298053e-02 1e-99 3.353962e-02 1e-99 1e-99
2.125e+09 1.086300e-02 1e-99 3.698549e-02 1e-99 1e-99
2.175e+09 1.100537e-02 1e-99 3.759034e-02 1e-99 1e-99
2.225e+09 1.133698e-02 1e-99 3.780679e-02 1e-99 1e-99
2.275e+09 9.869711e-03 1e-99 4.398462e-02 1e-99 1e-99
2.325e+09 1.042811e-02 1e-99 4.042627e-02 1e-99 1e-99
2.375e+09 9.491091e-03 1e-99 4.918532e-02 1e-99 1e-99
2.425e+09 9.409280e-03 1e-99 5.072203e-02 1e-99 1e-99
2.475e+09 8.436754e-03 1e-99 5.906285e-02 1e-99 1e-99
2.525e+09 1.110159e-02 1e-99 4.086107e-02 1e-99 1e-99
2.575e+09 9.350250e-03 1e-99 5.256271e-02 1e-99 1e-99
2.625e+09 1.075826e-02 1e-99 4.340864e-02 1e-99 1e-99
2.675e+09 9.802341e-03 1e-99 4.728466e-02 1e-99 1e-99
2.725e+09 9.395183e-03 1e-99 5.433296e-02 1e-99 1e-99
2.775e+09 1.012017e-02 1e-99 5.202873e-02 1e-99 1e-99
2.825e+09 8.120751e-03 1e-99 7.342568e-02 1e-99 1e-99
2.875e+09 7.644535e-03 1e-99 7.922400e-02 1e-99 1e-99
2.925e+09 1.175129e-02 1e-99 7.303549e-02 1e-99 1e-99
2.975e+09 1.057430e-02 1e-99 7.967854e-02 1e-99 1e-99
3.025e+09 1.242574e-02 1e-99 9.303069e-02 1e-99 1e-99
3.075e+09 1.021471e-02 1e-99 1.020822e-01 1e-99 1e-99
3.125e+09 5.935099e-03 1e-99 1.177991e-01 1e-99 1e-99
3.175e+09 7.199364e-03 1e-99 1.306009e-01 1e-99 1e-99
3.225e+09 8.872863e-03 1e-99 1.464493e-01 1e-99 1e-99
3.275e+09 7.751971e-03 1e-99 1.644594e-01 1e-99 1e-99
3.325e+09 8.622377e-03 1e-99 1.891943e-01 1e-99 1e-99
3.375e+09 9.603188e-04 1e-99 3.285455e-01 1e-99 1e-99
3.425e+09 1.086575e-02 1e-99 2.707285e-01 1e-99 1e-99
3.475e+09 9.446508e-03 1e-99 3.062513e-01 1e-99 1e-99
3.525e+09 9.084027e-03 1e-99 3.431001e-01 1e-99 1e-99
3.575e+09 6.419380e-03 1e-99 3.469899e-01 1e-99 1e-99
3.625e+09 8.966150e-03 1e-99 4.520779e-01 1e-99 1e-99
3.675e+09 8.208569e-03 1e-99 4.894009e-01 1e-99 1e-99
3.725e+09 1.385926e-02 1e-99 7.575814e-01 1e-99 1e-99
3.775e+09 5.966867e-03 1e-99 6.040725e-01 1e-99 1e-99
3.825e+09 3.694979e-03 1e-99 6.490012e-01 1e-99 1e-99
3.875e+09 1.284457e-02 1e-99 1.123346e+00 1e-99 1e-99
3.925e+09 2.070158e-03 1e-99 7.940424e-01 1e-99 1e-99
3.975e+09 1.262260e-03 1e-99 8.020582e-01 1e-99 1e-99
4.025e+09 1.831878e-03 1e-99 1.025138e+00 1e-99 1e-99
#TIME: 2.928200
#NVEL: 81
#vel_mid[km/s] Rossmean[cm^2/g] Fluxmean[cm^2/g] Planckmean[cm^2/g] Jcmf[erg/s/cm^2] Hcmf[erg/s/cm^2]
2.500e+07 5.540051e-01 1e-99 6.095946e-01 1e-99 1e-99
7.500e+07 6.645291e-01 1e-99 7.313990e-01 1e-99 1e-99
1.250e+08 7.833053e-01 1e-99 8.679148e-01 1e-99 1e-99
1.750e+08 9.249401e-01 1e-99 1.030469e+00 1e-99 1e-99
2.250e+08 1.091144e+00 1e-99 1.221384e+00 1e-99 1e-99
2.750e+08 1.281472e+00 1e-99 1.442266e+00 1e-99 1e-99
3.250e+08 1.494428e+00 1e-99 1.694079e+00 1e-99 1e-99
3.750e+08 1.723522e+00 1e-99 1.969888e+00 1e-99 1e-99
4.250e+08 1.959594e+00 1e-99 2.248545e+00 1e-99 1e-99
4.750e+08 2.187145e+00 1e-99 2.493970e+00 1e-99 1e-99
5.250e+08 2.379812e+00 1e-99 2.670051e+00 1e-99 1e-99
5.750e+08 2.502053e+00 1e-99 2.752646e+00 1e-99 1e-99
6.250e+08 2.513033e+00 1e-99 2.722428e+00 1e-99 1e-99
6.750e+08 2.376583e+00 1e-99 2.555921e+00 1e-99 1e-99
7.250e+08 2.003637e+00 1e-99 2.180056e+00 1e-99 1e-99
7.750e+08 1.507657e+00 1e-99 1.704732e+00 1e-99 1e-99
8.250e+08 1.101586e+00 1e-99 1.307486e+00 1e-99 1e-99
8.750e+08 7.046502e-01 1e-99 8.976173e-01 1e-99 1e-99
9.250e+08 3.472496e-01 1e-99 4.890090e-01 1e-99 1e-99
9.750e+08 2.347229e-01 1e-99 3.351503e-01 1e-99 1e-99
1.025e+09 2.115353e-01 1e-99 3.315090e-01 1e-99 1e-99
1.075e+09 1.727002e-01 1e-99 2.647159e-01 1e-99 1e-99
1.125e+09 1.086690e-01 1e-99 1.700168e-01 1e-99 1e-99
1.175e+09 8.517031e-02 1e-99 1.387497e-01 1e-99 1e-99
1.225e+09 4.642010e-02 1e-99 6.048223e-02 1e-99 1e-99
1.275e+09 2.990128e-02 1e-99 1.928457e-02 1e-99 1e-99
1.325e+09 2.934525e-02 1e-99 2.020768e-02 1e-99 1e-99
1.375e+09 2.803292e-02 1e-99 2.215188e-02 1e-99 1e-99
1.425e+09 2.537655e-02 1e-99 2.257288e-02 1e-99 1e-99
1.475e+09 2.407159e-02 1e-99 2.142547e-02 1e-99 1e-99
1.525e+09 2.235571e-02 1e-99 2.005767e-02 1e-99 1e-99
1.575e+09 1.989439e-02 1e-99 1.846840e-02 1e-99 1e-99
1.625e+09 1.745038e-02 1e-99 1.669517e-02 1e-99 1e-99
1.675e+09 1.621778e-02 1e-99 1.584835e-02 1e-99 1e-99
1.725e+09 1.558547e-02 1e-99 1.550778e-02 1e-99 1e-99
1.775e+09 1.533595e-02 1e-99 1.580576e-02 1e-99 1e-99
1.825e+09 1.520204e-02 1e-99 1.646074e-02 1e-99 1e-99
1.875e+09 1.514217e-02 1e-99 1.756487e-02 1e-99 1e-99
1.925e+09 1.513621e-02 1e-99 1.945218e-02 1e-99 1e-99
1.975e+09 1.508763e-02 1e-99 2.147335e-02 1e-99 1e-99
2.025e+09 1.500972e-02 1e-99 2.346246e-02 1e-99 1e-99
2.075e+09 1.482517e-02 1e-99 2.670018e-02 1e-99 1e-99
2.125e+09 1.434757e-02 1e-99 3.076628e-02 1e-99 1e-99
2.175e+09 1.393113e-02 1e-99 3.290978e-02 1e-99 1e-99
2.225e+09 1.296891e-02 1e-99 3.544282e-02 1e-99 1e-99
2.275e+09 1.312085e-02 1e-99 3.605915e-02 1e-99 1e-99
2.325e+09 1.328077e-02 1e-99 3.688716e-02 1e-99 1e-99
2.375e+09 1.345531e-02 1e-99 3.808248e-02 1e-99 1e-99
2.425e+09 1.113411e-02 1e-99 3.884988e-02 1e-99 1e-99
2.475e+09 1.157870e-02 1e-99 3.986775e-02 1e-99 1e-99
2.525e+09 1.045246e-02 1e-99 4.090024e-02 1e-99 1e-99
2.575e+09 9.976172e-03 1e-99 4.337660e-02 1e-99 1e-99
2.625e+09 9.370863e-03 1e-99 5.155332e-02 1e-99 1e-99
2.675e+09 9.338035e-03 1e-99 5.368592e-02 1e-99 1e-99
2.725e+09 9.669563e-03 1e-99 5.243070e-02 1e-99 1e-99
2.775e+09 9.511095e-03 1e-99 5.765925e-02 1e-99 1e-99
2.825e+09 9.691034e-03 1e-99 6.228317e-02 1e-99 1e-99
2.875e+09 9.746009e-03 1e-99 6.937665e-02 1e-99 1e-99
2.925e+09 9.051586e-03 1e-99 8.075117e-02 1e-99 1e-99
2.975e+09 9.711674e-03 1e-99 8.868085e-02 1e-99 1e-99
3.025e+09 1.010921e-02 1e-99 1.023811e-01 1e-99 1e-99
3.075e+09 6.668511e-03 1e-99 1.174516e-01 1e-99 1e-99
3.125e+09 9.842636e-03 1e-99 1.337095e-01 1e-99 1e-99
3.175e+09 8.968076e-03 1e-99 1.476402e-01 1e-99 1e-99
3.225e+09 7.012732e-03 1e-99 1.637537e-01 1e-99 1e-99
3.275e+09 9.134303e-03 1e-99 1.966144e-01 1e-99 1e-99
3.325e+09 9.264871e-03 1e-99 2.292845e-01 1e-99 1e-99
3.375e+09 8.932032e-03 1e-99 2.557557e-01 1e-99 1e-99
3.425e+09 8.997462e-03 1e-99 2.970107e-01 1e-99 1e-99
3.475e+09 8.821263e-03 1e-99 3.360038e-01 1e-99 1e-99
3.525e+09 5.620868e-03 1e-99 3.425818e-01 1e-99 1e-99
3.575e+09 9.272426e-03 1e-99 4.741357e-01 1e-99 1e-99
3.625e+09 6.367437e-03 1e-99 4.622752e-01 1e-99 1e-99
3.675e+09 8.543785e-03 1e-99 5.852934e-01 1e-99 1e-99
3.725e+09 6.723688e-03 1e-99 6.247671e-01 1e-99 1e-99
3.775e+09 9.181274e-03 1e-99 8.538681e-01 1e-99 1e-99
3.825e+09 8.497964e-03 1e-99 9.153733e-01 1e-99 1e-99
3.875e+09 1.068251e-03 1e-99 6.398416e-01 1e-99 1e-99
3.925e+09 8.870624e-03 1e-99 1.298071e+00 1e-99 1e-99
3.975e+09 5.912685e-03 1e-99 1.295089e+00 1e-99 1e-99
4.025e+09 6.009995e-03 1e-99 1.512761e+00 1e-99 1e-99
#TIME: 3.221020
#NVEL: 81
