#NTIMES 5
#NVEL 40
#TIMES[d] 100 150 200 300 400
#Vel_mid[km/s], Tgas [erg/s/cm3] 
2.500000e+02 6.960000e+03 6.300000e+03 5.740000e+03 5.000000e+03 4.300000e+03
7.500000e+02 7.050000e+03 6.380000e+03 5.840000e+03 5.120000e+03 4.400000e+03
1.250000e+03 7.120000e+03 6.470000e+03 5.950000e+03 5.250000e+03 4.530000e+03
1.750000e+03 7.200000e+03 6.560000e+03 6.060000e+03 5.380000e+03 4.660000e+03
2.250000e+03 7.260000e+03 6.640000e+03 6.170000e+03 5.530000e+03 4.800000e+03
2.750000e+03 7.330000e+03 6.720000e+03 6.300000e+03 5.690000e+03 4.970000e+03
3.250000e+03 7.380000e+03 6.810000e+03 6.430000e+03 5.860000e+03 5.140000e+03
3.750000e+03 7.440000e+03 6.920000e+03 6.570000e+03 6.050000e+03 5.330000e+03
4.250000e+03 7.500000e+03 7.020000e+03 6.730000e+03 6.250000e+03 5.530000e+03
4.750000e+03 7.560000e+03 7.150000e+03 6.900000e+03 6.460000e+03 5.740000e+03
5.250000e+03 7.620000e+03 7.290000e+03 7.090000e+03 6.690000e+03 5.980000e+03
5.750000e+03 7.700000e+03 7.440000e+03 7.300000e+03 6.940000e+03 6.230000e+03
6.250000e+03 7.780000e+03 7.610000e+03 7.530000e+03 7.220000e+03 6.510000e+03
6.750000e+03 7.870000e+03 7.780000e+03 7.770000e+03 7.500000e+03 6.800000e+03
7.250000e+03 7.910000e+03 7.910000e+03 7.950000e+03 7.710000e+03 6.990000e+03
7.750000e+03 7.940000e+03 8.010000e+03 8.090000e+03 7.840000e+03 7.070000e+03
8.250000e+03 8.020000e+03 8.130000e+03 8.180000e+03 7.880000e+03 7.070000e+03
8.750000e+03 8.200000e+03 8.310000e+03 8.310000e+03 7.920000e+03 7.000000e+03
9.250000e+03 8.510000e+03 8.570000e+03 8.450000e+03 7.850000e+03 6.840000e+03
9.750000e+03 8.950000e+03 8.940000e+03 8.570000e+03 7.650000e+03 6.490000e+03
1.025000e+04 9.510000e+03 9.390000e+03 8.710000e+03 7.290000e+03 5.900000e+03
1.075000e+04 1.090000e+04 1.060000e+04 9.070000e+03 6.700000e+03 5.190000e+03
1.125000e+04 1.160000e+04 1.150000e+04 1.030000e+04 6.000000e+03 4.510000e+03
1.175000e+04 1.210000e+04 1.200000e+04 1.110000e+04 5.470000e+03 4.010000e+03
1.225000e+04 1.240000e+04 1.230000e+04 1.160000e+04 5.250000e+03 3.770000e+03
1.275000e+04 1.270000e+04 1.260000e+04 1.190000e+04 5.330000e+03 3.800000e+03
1.325000e+04 1.290000e+04 1.290000e+04 1.220000e+04 5.450000e+03 3.850000e+03
1.375000e+04 1.320000e+04 1.320000e+04 1.250000e+04 5.580000e+03 3.910000e+03
1.425000e+04 1.350000e+04 1.350000e+04 1.280000e+04 5.750000e+03 4.000000e+03
1.475000e+04 1.380000e+04 1.380000e+04 1.310000e+04 5.950000e+03 4.090000e+03
1.525000e+04 1.410000e+04 1.410000e+04 1.350000e+04 6.130000e+03 4.170000e+03
1.575000e+04 1.440000e+04 1.450000e+04 1.380000e+04 6.380000e+03 4.280000e+03
1.625000e+04 1.480000e+04 1.480000e+04 1.420000e+04 6.660000e+03 4.400000e+03
1.675000e+04 1.520000e+04 1.520000e+04 1.450000e+04 6.960000e+03 4.520000e+03
1.725000e+04 1.560000e+04 1.560000e+04 1.490000e+04 7.370000e+03 4.660000e+03
1.775000e+04 1.600000e+04 1.610000e+04 1.530000e+04 7.790000e+03 4.810000e+03
1.825000e+04 1.640000e+04 1.650000e+04 1.580000e+04 8.290000e+03 4.980000e+03
1.875000e+04 1.690000e+04 1.700000e+04 1.620000e+04 8.890000e+03 5.170000e+03
1.925000e+04 1.740000e+04 1.750000e+04 1.670000e+04 9.610000e+03 5.370000e+03
1.975000e+04 1.790000e+04 1.790000e+04 1.700000e+04 1.040000e+04 5.600000e+03
