#NTIMES 5
#NVEL 40
#TIMES[d] 100 150 200 300 400
#vel_mid[km/s], ne [cm-3] 
2.500000e+02 7.238400e+07 2.224000e+07 9.525600e+06 2.800000e+06 1.141140e+06
7.500000e+02 6.335800e+07 1.956000e+07 8.331200e+06 2.461300e+06 1.003230e+06
1.250000e+03 5.437800e+07 1.672800e+07 7.187800e+06 2.128500e+06 8.736000e+05
1.750000e+03 4.690500e+07 1.446480e+07 6.208400e+06 1.842600e+06 7.583100e+05
2.250000e+03 4.180800e+07 1.288000e+07 5.559600e+06 1.656400e+06 6.773400e+05
2.750000e+03 3.865600e+07 1.181100e+07 5.055400e+06 1.504060e+06 6.156000e+05
3.250000e+03 3.632200e+07 1.108380e+07 4.721200e+06 1.381160e+06 5.586000e+05
3.750000e+03 3.372800e+07 1.012920e+07 4.278000e+06 1.203890e+06 4.850000e+05
4.250000e+03 2.996400e+07 8.883600e+06 3.635200e+06 9.839700e+05 3.692000e+05
4.750000e+03 2.509000e+07 7.449000e+06 3.049200e+06 7.947600e+05 2.642500e+05
5.250000e+03 2.086400e+07 6.230700e+06 2.550000e+06 6.572700e+05 2.142000e+05
5.750000e+03 1.739900e+07 5.196800e+06 2.120400e+06 5.475600e+05 1.759080e+05
6.250000e+03 1.460500e+07 4.364800e+06 1.771200e+06 4.568900e+05 1.463400e+05
6.750000e+03 1.233170e+07 3.686400e+06 1.476200e+06 3.852000e+05 1.225120e+05
7.250000e+03 1.038860e+07 3.097600e+06 1.244400e+06 3.242100e+05 1.030400e+05
7.750000e+03 8.793600e+06 2.618700e+06 1.046760e+06 2.743200e+05 8.602800e+04
8.250000e+03 7.411200e+06 2.218800e+06 8.905200e+05 2.311200e+05 7.250080e+04
8.750000e+03 6.282300e+06 1.872000e+06 7.478400e+05 1.980000e+05 6.064800e+04
9.250000e+03 5.317000e+06 1.585100e+06 6.348800e+05 1.687200e+05 4.992000e+04
9.750000e+03 4.519500e+06 1.346400e+06 5.387500e+05 1.433600e+05 3.627470e+04
1.025000e+04 3.828000e+06 1.142470e+06 4.573800e+05 1.219800e+05 2.989800e+04
1.075000e+04 3.245200e+06 9.674800e+05 3.860800e+05 1.028280e+05 2.499360e+04
1.125000e+04 2.760400e+06 8.221500e+05 3.289600e+05 8.827600e+04 2.102550e+04
1.175000e+04 2.352800e+06 7.014400e+05 2.786400e+05 7.552000e+04 1.779300e+04
1.225000e+04 2.000200e+06 5.990900e+05 2.384200e+05 6.414100e+04 1.509550e+04
1.275000e+04 1.695800e+06 5.082000e+05 2.019600e+05 5.481300e+04 1.289250e+04
1.325000e+04 1.452300e+06 4.331000e+05 1.728600e+05 4.686300e+04 1.107680e+04
1.375000e+04 1.241240e+06 3.700800e+05 1.468800e+05 3.980400e+04 9.547200e+03
1.425000e+04 1.052700e+06 3.139000e+05 1.253040e+05 3.389400e+04 8.196600e+03
1.475000e+04 8.981700e+05 2.678800e+05 1.069600e+05 2.892800e+04 7.009700e+03
1.525000e+04 7.651600e+05 2.295000e+05 9.187400e+04 2.476800e+04 6.059410e+03
1.575000e+04 6.510000e+05 1.960800e+05 7.873500e+04 2.109100e+04 5.214720e+03
1.625000e+04 5.584500e+05 1.663200e+05 6.703200e+04 1.809000e+04 4.491600e+03
1.675000e+04 4.758500e+05 1.419600e+05 5.721600e+04 1.550400e+04 3.888000e+03
1.725000e+04 4.050600e+05 1.208700e+05 4.909600e+04 1.320660e+04 3.373400e+03
1.775000e+04 3.450300e+05 1.030400e+05 4.188800e+04 1.136460e+04 2.924000e+03
1.825000e+04 2.946300e+05 8.780400e+04 3.595300e+04 9.695400e+03 2.539680e+03
1.875000e+04 2.510200e+05 7.478400e+04 3.088000e+04 8.336600e+03 2.209970e+03
1.925000e+04 2.128500e+05 6.396100e+04 2.624400e+04 7.089200e+03 1.916980e+03
1.975000e+04 1.820300e+05 5.426400e+04 2.216800e+04 6.019600e+03 1.643900e+03
