#NTIMES: 104
#time[d]  Lbol[erg/s] Edep[erg/s]
   1.300    8.354e+39   7.719e+42
   1.800    6.641e+39   7.364e+42
   2.300    1.467e+40   7.026e+42
   2.800    3.340e+40   6.575e+42
   3.300    6.279e+40   6.575e+42
   3.800    1.031e+41   5.922e+42
   4.300    1.513e+41   5.922e+42
   4.800    2.055e+41   5.347e+42
   5.300    2.643e+41   5.347e+42
   5.800    3.291e+41   5.347e+42
   6.300    4.050e+41   4.842e+42
   6.800    4.961e+41   4.842e+42
   7.300    6.069e+41   4.397e+42
   7.800    7.395e+41   4.397e+42
   8.300    8.939e+41   4.259e+42
   8.800    1.064e+42   4.006e+42
   9.300    1.251e+42   3.976e+42
   9.800    1.441e+42   3.661e+42
  10.300    1.636e+42   3.661e+42
  10.800    1.826e+42   3.358e+42
  11.300    2.007e+42   3.358e+42
  11.800    2.174e+42   3.170e+42
  12.300    2.322e+42   3.090e+42
  12.800    2.446e+42   2.974e+42
  13.050    2.494e+42   2.904e+42
  13.602    2.579e+42   2.854e+42
  14.051    2.628e+42   2.824e+42
  14.551    2.659e+42   2.645e+42
  15.051    2.668e+42   2.581e+42
  15.550    2.652e+42   2.461e+42
  16.050    2.618e+42   2.461e+42
  16.550    2.560e+42   2.297e+42
  17.050    2.494e+42   2.297e+42
  17.551    2.415e+42   2.213e+42
  18.050    2.324e+42   2.153e+42
  18.551    2.238e+42   2.133e+42
  19.051    2.143e+42   2.025e+42
  19.551    2.048e+42   2.025e+42
  20.051    1.953e+42   1.917e+42
  20.550    1.861e+42   1.911e+42
  21.050    1.775e+42   1.866e+42
  21.550    1.693e+42   1.810e+42
  22.050    1.615e+42   1.810e+42
  22.550    1.548e+42   1.720e+42
  23.056    1.487e+42   1.717e+42
  23.551    1.429e+42   1.640e+42
  24.051    1.377e+42   1.640e+42
  24.552    1.322e+42   1.568e+42
  25.051    1.266e+42   1.568e+42
  25.551    1.219e+42   1.520e+42
  26.051    1.191e+42   1.504e+42
  26.551    1.168e+42   1.495e+42
  27.051    1.146e+42   1.446e+42
  27.552    1.129e+42   1.446e+42
  28.050    1.108e+42   1.406e+42
  28.551    1.090e+42   1.394e+42
  29.051    1.072e+42   1.373e+42
  29.551    1.053e+42   1.347e+42
  30.051    1.036e+42   1.341e+42
  30.551    1.017e+42   1.305e+42
  31.052    1.002e+42   1.305e+42
  31.551    9.859e+41   1.279e+42
  32.050    9.710e+41   1.266e+42
  32.550    9.549e+41   1.259e+42
  33.051    9.400e+41   1.231e+42
  33.551    9.265e+41   1.231e+42
  34.051    9.142e+41   1.200e+42
  34.552    9.026e+41   1.200e+42
  35.052    8.904e+41   1.174e+42
  35.551    8.803e+41   1.170e+42
  36.051    8.706e+41   1.155e+42
  36.300    8.660e+41   1.143e+42
  36.800    8.563e+41   1.143e+42
  37.301    8.475e+41   1.125e+42
  37.801    8.395e+41   1.119e+42
  38.302    8.313e+41   1.109e+42
  38.802    8.238e+41   1.096e+42
  39.301    8.155e+41   1.093e+42
  39.801    8.089e+41   1.075e+42
  40.300    8.015e+41   1.075e+42
  40.800    7.948e+41   1.059e+42
  41.301    7.877e+41   1.055e+42
  41.801    7.818e+41   1.046e+42
  42.800    7.693e+41   1.033e+42
  43.301    7.639e+41   1.019e+42
  44.300    7.524e+41   1.002e+42
  44.802    7.470e+41   1.002e+42
  45.300    7.417e+41   9.991e+41
  45.801    7.358e+41   9.869e+41
  46.303    7.316e+41   9.835e+41
  46.803    7.255e+41   9.722e+41
  47.300    7.172e+41   9.722e+41
  47.802    7.103e+41   9.594e+41
  48.300    7.056e+41   9.581e+41
  48.803    7.031e+41   9.502e+41
  49.303    7.012e+41   9.448e+41
  49.800    6.982e+41   9.411e+41
  50.302    6.955e+41   9.319e+41
  50.800    6.914e+41   9.319e+41
  51.305    6.879e+41   9.200e+41
  51.805    6.839e+41   9.196e+41
  52.301    6.806e+41   9.119e+41
  52.802    6.768e+41   9.078e+41
  55.301    6.580e+41   8.852e+41
